0.000000 0.116838
0.002778 0.127148
0.005556 0.123711
0.008333 0.106529
0.011111 0.075601
0.013889 0.051546
0.016667 0.054983
0.019444 0.085911
0.022222 0.123711
0.025000 0.120275
0.027778 0.075601
0.030556 0.044674
0.033333 0.044674
0.036111 0.075601
0.038889 0.092784
0.041667 0.085911
0.044444 0.068729
0.047222 0.051546
0.050000 0.041237
0.052778 0.054983
0.055556 0.054983
0.058333 0.030928
0.061111 0.030928
0.063889 0.075601
0.066667 0.123711
0.069444 0.137457
0.072222 0.106529
0.075000 0.037801
0.077778 -0.024055
0.080556 -0.054983
0.083333 -0.020619
0.086111 0.030928
0.088889 0.051546
0.091667 0.020619
0.094444 -0.030928
0.097222 -0.054983
0.100000 -0.034364
0.102778 0.006873
0.105556 0.030928
0.108333 0.051546
0.111111 0.113402
0.113889 0.219931
0.116667 0.268041
0.119444 0.195876
0.122222 0.075601
0.125000 -0.051546
0.127778 -0.161512
0.130556 -0.202749
0.133333 -0.137457
0.136111 -0.044674
0.138889 -0.013746
0.141667 -0.051546
0.144444 -0.103093
0.147222 -0.137457
0.150000 -0.134021
0.152778 -0.092784
0.155556 -0.037801
0.158333 -0.006873
0.161111 -0.024055
0.163889 -0.051546
0.166667 -0.037801
0.169444 0.000000
0.172222 0.020619
0.175000 0.003436
0.177778 -0.020619
0.180556 -0.044674
0.183333 -0.044674
0.186111 -0.013746
0.188889 0.013746
0.191667 0.024055
0.194444 0.006873
0.197222 -0.020619
0.200000 -0.024055
0.202778 0.003436
0.205556 0.030928
0.208333 0.013746
0.211111 -0.027491
0.213889 -0.054983
0.216667 -0.044674
0.219444 -0.020619
0.222222 -0.041237
0.225000 -0.075601
0.227778 -0.109966
0.230556 -0.127148
0.233333 -0.130584
0.236111 -0.116838
0.238889 -0.127148
0.241667 -0.164948
0.244444 -0.206186
0.247222 -0.230241
0.250000 -0.237113
0.252778 -0.219931
0.255556 -0.206186
0.258333 -0.219931
0.261111 -0.250859
0.263889 -0.278351
0.266667 -0.261168
0.269444 -0.230241
0.272222 -0.226804
0.275000 -0.243986
0.277778 -0.264605
0.280556 -0.288660
0.283333 -0.302405
0.286111 -0.278351
0.288889 -0.257732
0.291667 -0.271478
0.294444 -0.329897
0.297222 -0.402062
0.300000 -0.446735
0.302778 -0.446735
0.305556 -0.432990
0.308333 -0.422680
0.311111 -0.412371
0.313889 -0.343643
0.316667 -0.182131
0.319444 0.072165
0.322222 0.350515
0.325000 0.567010
0.327778 0.683849
0.330556 0.597938
0.333333 0.391753
0.336111 0.243986
0.338889 0.185567
0.341667 0.127148
0.344444 -0.034364
0.347222 -0.274914
0.350000 -0.457045
0.352778 -0.512027
0.355556 -0.494845
0.358333 -0.463918
0.361111 -0.453608
0.363889 -0.457045
0.366667 -0.422680
0.369444 -0.329897
0.372222 -0.268041
0.375000 -0.274914
0.377778 -0.336770
0.380556 -0.395189
0.383333 -0.405498
0.386111 -0.371134
0.388889 -0.340206
0.391667 -0.364261
0.394444 -0.439863
0.397222 -0.529210
0.400000 -0.577320
0.402778 -0.549828
0.405556 -0.515464
0.408333 -0.518900
0.411111 -0.546392
0.413889 -0.556701
0.416667 -0.539519
0.419444 -0.498282
0.422222 -0.467354
0.425000 -0.463918
0.427778 -0.491409
0.430556 -0.515464
0.433333 -0.512027
0.436111 -0.498282
0.438889 -0.474227
0.441667 -0.457045
0.444444 -0.484536
0.447222 -0.529210
0.450000 -0.525773
0.452778 -0.484536
0.455556 -0.481100
0.458333 -0.508591
0.461111 -0.522337
0.463889 -0.522337
0.466667 -0.508591
0.469444 -0.481100
0.472222 -0.463918
0.475000 -0.477663
0.477778 -0.515464
0.480556 -0.542955
0.483333 -0.536082
0.486111 -0.494845
0.488889 -0.477663
0.491667 -0.505155
0.494444 -0.529210
0.497222 -0.529210
0.500000 -0.515464
0.502778 -0.505155
0.505556 -0.491409
0.508333 -0.487973
0.511111 -0.505155
0.513889 -0.525773
0.516667 -0.518900
0.519444 -0.487973
0.522222 -0.463918
0.525000 -0.477663
0.527778 -0.529210
0.530556 -0.546392
0.533333 -0.518900
0.536111 -0.487973
0.538889 -0.484536
0.541667 -0.494845
0.544444 -0.505155
0.547222 -0.515464
0.550000 -0.515464
0.552778 -0.491409
0.555556 -0.484536
0.558333 -0.505155
0.561111 -0.536082
0.563889 -0.542955
0.566667 -0.515464
0.569444 -0.487973
0.572222 -0.487973
0.575000 -0.501718
0.577778 -0.515464
0.580556 -0.529210
0.583333 -0.529210
0.586111 -0.498282
0.588889 -0.463918
0.591667 -0.463918
0.594444 -0.474227
0.597222 -0.498282
0.600000 -0.515464
0.602778 -0.505155
0.605556 -0.501718
0.608333 -0.498282
0.611111 -0.481100
0.613889 -0.484536
0.616667 -0.484536
0.619444 -0.446735
0.622222 -0.432990
0.625000 -0.477663
0.627778 -0.542955
0.630556 -0.577320
0.633333 -0.570447
0.636111 -0.525773
0.638889 -0.508591
0.641667 -0.563574
0.644444 -0.666667
0.647222 -0.735395
0.650000 -0.756014
0.652778 -0.735395
0.655556 -0.694158
0.658333 -0.676976
0.661111 -0.680412
0.663889 -0.673540
0.666667 -0.652921
0.669444 -0.632302
0.672222 -0.625430
0.675000 -0.632302
0.677778 -0.652921
0.680556 -0.652921
0.683333 -0.625430
0.686111 -0.604811
0.688889 -0.611684
0.691667 -0.628866
0.694444 -0.663230
0.697222 -0.683849
0.700000 -0.666667
0.702778 -0.628866
0.705556 -0.618557
0.708333 -0.639175
0.711111 -0.670103
0.713889 -0.690722
0.716667 -0.676976
0.719444 -0.639175
0.722222 -0.625430
0.725000 -0.642612
0.727778 -0.673540
0.730556 -0.704467
0.733333 -0.697595
0.736111 -0.663230
0.738889 -0.642612
0.741667 -0.642612
0.744444 -0.670103
0.747222 -0.694158
0.750000 -0.690722
0.752778 -0.656357
0.755556 -0.659794
0.758333 -0.680412
0.761111 -0.697595
0.763889 -0.714777
0.766667 -0.714777
0.769444 -0.683849
0.772222 -0.670103
0.775000 -0.680412
0.777778 -0.707904
0.780556 -0.735395
0.783333 -0.725086
0.786111 -0.690722
0.788889 -0.680412
0.791667 -0.687285
0.794444 -0.701031
0.797222 -0.711340
0.800000 -0.701031
0.802778 -0.673540
0.805556 -0.673540
0.808333 -0.687285
0.811111 -0.704467
0.813889 -0.714777
0.816667 -0.701031
0.819444 -0.680412
0.822222 -0.676976
0.825000 -0.670103
0.827778 -0.680412
0.830556 -0.711340
0.833333 -0.728522
0.836111 -0.711340
0.838889 -0.697595
0.841667 -0.707904
0.844444 -0.731959
0.847222 -0.742268
0.850000 -0.694158
0.852778 -0.632302
0.855556 -0.611684
0.858333 -0.611684
0.861111 -0.628866
0.863889 -0.649485
0.866667 -0.649485
0.869444 -0.615120
0.872222 -0.597938
0.875000 -0.597938
0.877778 -0.608247
0.880556 -0.611684
0.883333 -0.587629
0.886111 -0.556701
0.888889 -0.563574
0.891667 -0.580756
0.894444 -0.587629
0.897222 -0.587629
0.900000 -0.580756
0.902778 -0.556701
0.905556 -0.518900
0.908333 -0.505155
0.911111 -0.549828
0.913889 -0.611684
0.916667 -0.635739
0.919444 -0.635739
0.922222 -0.618557
0.925000 -0.580756
0.927778 -0.560137
0.930556 -0.587629
0.933333 -0.632302
0.936111 -0.646048
0.938889 -0.670103
0.941667 -0.731959
0.944444 -0.776632
0.947222 -0.790378
0.950000 -0.780069
0.952778 -0.745704
0.955556 -0.728522
0.958333 -0.731959
0.961111 -0.735395
0.963889 -0.749141
0.966667 -0.745704
0.969444 -0.711340
0.972222 -0.701031
0.975000 -0.721649
0.977778 -0.745704
0.980556 -0.766323
0.983333 -0.756014
0.986111 -0.725086
0.988889 -0.721649
0.991667 -0.735395
0.994444 -0.776632
0.997222 -0.810997
1.000000 -0.824742
1.002778 -0.807560
1.005556 -0.797251
1.008333 -0.797251
1.011111 -0.804124
1.013889 -0.783505
1.016667 -0.663230
1.019444 -0.446735
1.022222 -0.195876
1.025000 0.041237
1.027778 0.223368
1.030556 0.219931
1.033333 0.065292
1.036111 -0.048110
1.038889 -0.099656
1.041667 -0.147766
1.044444 -0.274914
1.047222 -0.487973
1.050000 -0.704467
1.052778 -0.838488
1.055556 -0.865979
1.058333 -0.824742
1.061111 -0.773196
1.063889 -0.745704
1.066667 -0.731959
1.069444 -0.711340
1.072222 -0.701031
1.075000 -0.701031
1.077778 -0.721649
1.080556 -0.756014
1.083333 -0.735395
1.086111 -0.663230
1.088889 -0.649485
1.091667 -0.680412
1.094444 -0.725086
1.097222 -0.766323
1.100000 -0.776632
1.102778 -0.752577
1.105556 -0.731959
1.108333 -0.731959
1.111111 -0.759450
1.113889 -0.773196
1.116667 -0.745704
1.119444 -0.725086
1.122222 -0.728522
1.125000 -0.742268
1.127778 -0.735395
1.130556 -0.711340
1.133333 -0.701031
1.136111 -0.663230
1.138889 -0.642612
1.141667 -0.659794
1.144444 -0.694158
1.147222 -0.714777
1.150000 -0.707904
1.152778 -0.673540
1.155556 -0.659794
1.158333 -0.680412
1.161111 -0.690722
1.163889 -0.666667
1.166667 -0.625430
1.169444 -0.601375
1.172222 -0.608247
1.175000 -0.621993
1.177778 -0.646048
1.180556 -0.683849
1.183333 -0.694158
1.186111 -0.659794
1.188889 -0.632302
1.191667 -0.652921
1.194444 -0.687285
1.197222 -0.694158
1.200000 -0.680412
1.202778 -0.642612
1.205556 -0.608247
1.208333 -0.604811
1.211111 -0.625430
1.213889 -0.632302
1.216667 -0.628866
1.219444 -0.601375
1.222222 -0.577320
1.225000 -0.587629
1.227778 -0.608247
1.230556 -0.618557
1.233333 -0.597938
1.236111 -0.560137
1.238889 -0.525773
1.241667 -0.522337
1.244444 -0.525773
1.247222 -0.515464
1.250000 -0.487973
1.252778 -0.460481
1.255556 -0.470790
1.258333 -0.525773
1.261111 -0.570447
1.263889 -0.587629
1.266667 -0.584192
1.269444 -0.549828
1.272222 -0.518900
1.275000 -0.508591
1.277778 -0.529210
1.280556 -0.546392
1.283333 -0.536082
1.286111 -0.515464
1.288889 -0.515464
1.291667 -0.518900
1.294444 -0.487973
1.297222 -0.443299
1.300000 -0.426117
1.302778 -0.439863
1.305556 -0.477663
1.308333 -0.525773
1.311111 -0.580756
1.313889 -0.601375
1.316667 -0.594502
1.319444 -0.584192
1.322222 -0.570447
1.325000 -0.567010
1.327778 -0.580756
1.330556 -0.591065
1.333333 -0.587629
1.336111 -0.570447
1.338889 -0.567010
1.341667 -0.573883
1.344444 -0.591065
1.347222 -0.608247
1.350000 -0.587629
1.352778 -0.525773
1.355556 -0.484536
1.358333 -0.505155
1.361111 -0.542955
1.363889 -0.563574
1.366667 -0.567010
1.369444 -0.560137
1.372222 -0.567010
1.375000 -0.570447
1.377778 -0.577320
1.380556 -0.591065
1.383333 -0.577320
1.386111 -0.542955
1.388889 -0.525773
1.391667 -0.546392
1.394444 -0.567010
1.397222 -0.587629
1.400000 -0.587629
1.402778 -0.546392
1.405556 -0.522337
1.408333 -0.529210
1.411111 -0.553265
1.413889 -0.553265
1.416667 -0.556701
1.419444 -0.563574
1.422222 -0.553265
1.425000 -0.525773
1.427778 -0.515464
1.430556 -0.525773
1.433333 -0.525773
1.436111 -0.518900
1.438889 -0.539519
1.441667 -0.549828
1.444444 -0.546392
1.447222 -0.549828
1.450000 -0.549828
1.452778 -0.525773
1.455556 -0.498282
1.458333 -0.498282
1.461111 -0.536082
1.463889 -0.556701
1.466667 -0.546392
1.469444 -0.518900
1.472222 -0.505155
1.475000 -0.512027
1.477778 -0.532646
1.480556 -0.556701
1.483333 -0.549828
1.486111 -0.508591
1.488889 -0.481100
1.491667 -0.491409
1.494444 -0.518900
1.497222 -0.532646
1.500000 -0.518900
1.502778 -0.498282
1.505556 -0.501718
1.508333 -0.505155
1.511111 -0.508591
1.513889 -0.529210
1.516667 -0.532646
1.519444 -0.498282
1.522222 -0.477663
1.525000 -0.505155
1.527778 -0.539519
1.530556 -0.542955
1.533333 -0.515464
1.536111 -0.487973
1.538889 -0.474227
1.541667 -0.463918
1.544444 -0.463918
1.547222 -0.467354
1.550000 -0.446735
1.552778 -0.408935
1.555556 -0.384880
1.558333 -0.364261
1.561111 -0.340206
1.563889 -0.340206
1.566667 -0.364261
1.569444 -0.384880
1.572222 -0.395189
1.575000 -0.402062
1.577778 -0.367698
1.580556 -0.312715
1.583333 -0.309278
1.586111 -0.343643
1.588889 -0.374570
1.591667 -0.405498
1.594444 -0.453608
1.597222 -0.484536
1.600000 -0.453608
1.602778 -0.374570
1.605556 -0.326460
1.608333 -0.326460
1.611111 -0.350515
1.613889 -0.384880
1.616667 -0.384880
1.619444 -0.353952
1.622222 -0.343643
1.625000 -0.371134
1.627778 -0.419244
1.630556 -0.460481
1.633333 -0.460481
1.636111 -0.453608
1.638889 -0.450172
1.641667 -0.457045
1.644444 -0.484536
1.647222 -0.505155
1.650000 -0.498282
1.652778 -0.477663
1.655556 -0.457045
1.658333 -0.446735
1.661111 -0.453608
1.663889 -0.460481
1.666667 -0.467354
1.669444 -0.453608
1.672222 -0.439863
1.675000 -0.450172
1.677778 -0.487973
1.680556 -0.508591
1.683333 -0.487973
1.686111 -0.457045
1.688889 -0.453608
1.691667 -0.491409
1.694444 -0.539519
1.697222 -0.577320
1.700000 -0.597938
1.702778 -0.587629
1.705556 -0.556701
1.708333 -0.525773
1.711111 -0.470790
1.713889 -0.343643
1.716667 -0.113402
1.719444 0.185567
1.722222 0.463918
1.725000 0.611684
1.727778 0.515464
1.730556 0.302405
1.733333 0.178694
1.736111 0.171821
1.738889 0.147766
1.741667 0.006873
1.744444 -0.233677
1.747222 -0.470790
1.750000 -0.608247
1.752778 -0.611684
1.755556 -0.525773
1.758333 -0.457045
1.761111 -0.453608
1.763889 -0.474227
1.766667 -0.467354
1.769444 -0.426117
1.772222 -0.405498
1.775000 -0.422680
1.777778 -0.453608
1.780556 -0.460481
1.783333 -0.426117
1.786111 -0.395189
1.788889 -0.391753
1.791667 -0.408935
1.794444 -0.432990
1.797222 -0.443299
1.800000 -0.429553
1.802778 -0.391753
1.805556 -0.371134
1.808333 -0.364261
1.811111 -0.384880
1.813889 -0.419244
1.816667 -0.422680
1.819444 -0.395189
1.822222 -0.371134
1.825000 -0.371134
1.827778 -0.398625
1.830556 -0.419244
1.833333 -0.402062
1.836111 -0.364261
1.838889 -0.343643
1.841667 -0.350515
1.844444 -0.371134
1.847222 -0.381443
1.850000 -0.367698
1.852778 -0.336770
1.855556 -0.323024
1.858333 -0.333333
1.861111 -0.340206
1.863889 -0.340206
1.866667 -0.329897
1.869444 -0.312715
1.872222 -0.298969
1.875000 -0.302405
1.877778 -0.319588
1.880556 -0.333333
1.883333 -0.316151
1.886111 -0.271478
1.888889 -0.254296
1.891667 -0.268041
1.894444 -0.288660
1.897222 -0.295533
1.900000 -0.285223
1.902778 -0.243986
1.905556 -0.213058
1.908333 -0.216495
1.911111 -0.240550
1.913889 -0.243986
1.916667 -0.226804
1.919444 -0.206186
1.922222 -0.192440
1.925000 -0.189003
1.927778 -0.206186
1.930556 -0.237113
1.933333 -0.243986
1.936111 -0.209622
1.938889 -0.178694
1.941667 -0.178694
1.944444 -0.195876
1.947222 -0.206186
1.950000 -0.189003
1.952778 -0.154639
1.955556 -0.134021
1.958333 -0.151203
1.961111 -0.178694
1.963889 -0.189003
1.966667 -0.164948
1.969444 -0.127148
1.972222 -0.120275
1.975000 -0.134021
1.977778 -0.147766
1.980556 -0.161512
1.983333 -0.147766
1.986111 -0.116838
1.988889 -0.109966
1.991667 -0.130584
1.994444 -0.154639
1.997222 -0.164948
2.000000 -0.147766
2.002778 -0.106529
2.005556 -0.079038
2.008333 -0.085911
2.011111 -0.123711
2.013889 -0.164948
2.016667 -0.175258
2.019444 -0.147766
2.022222 -0.116838
2.025000 -0.113402
2.027778 -0.140893
2.030556 -0.178694
2.033333 -0.175258
2.036111 -0.137457
2.038889 -0.106529
2.041667 -0.116838
2.044444 -0.147766
2.047222 -0.171821
2.050000 -0.161512
2.052778 -0.120275
2.055556 -0.099656
2.058333 -0.109966
2.061111 -0.140893
2.063889 -0.161512
2.066667 -0.154639
2.069444 -0.123711
2.072222 -0.099656
2.075000 -0.103093
2.077778 -0.127148
2.080556 -0.144330
2.083333 -0.137457
2.086111 -0.106529
2.088889 -0.085911
2.091667 -0.096220
2.094444 -0.123711
2.097222 -0.140893
2.100000 -0.134021
2.102778 -0.106529
2.105556 -0.092784
2.108333 -0.096220
2.111111 -0.116838
2.113889 -0.130584
2.116667 -0.120275
2.119444 -0.085911
2.122222 -0.072165
2.125000 -0.079038
2.127778 -0.103093
2.130556 -0.120275
2.133333 -0.106529
2.136111 -0.079038
2.138889 -0.065292
2.141667 -0.068729
2.144444 -0.089347
2.147222 -0.109966
2.150000 -0.116838
2.152778 -0.096220
2.155556 -0.082474
2.158333 -0.089347
2.161111 -0.103093
2.163889 -0.106529
2.166667 -0.092784
2.169444 -0.065292
2.172222 -0.044674
2.175000 -0.051546
2.177778 -0.072165
2.180556 -0.092784
2.183333 -0.085911
2.186111 -0.065292
2.188889 -0.051546
2.191667 -0.061856
2.194444 -0.079038
2.197222 -0.085911
2.200000 -0.072165
2.202778 -0.044674
2.205556 -0.024055
2.208333 -0.024055
2.211111 -0.037801
2.213889 -0.054983
2.216667 -0.054983
2.219444 -0.034364
2.222222 -0.020619
2.225000 -0.034364
2.227778 -0.065292
2.230556 -0.075601
2.233333 -0.044674
2.236111 0.006873
2.238889 0.041237
2.241667 0.041237
2.244444 0.013746
2.247222 -0.010309
2.250000 -0.010309
2.252778 0.020619
2.255556 0.061856
2.258333 0.082474
2.261111 0.075601
2.263889 0.051546
2.266667 0.048110
2.269444 0.072165
2.272222 0.085911
2.275000 0.082474
2.277778 0.072165
2.280556 0.075601
2.283333 0.099656
2.286111 0.123711
2.288889 0.144330
2.291667 0.144330
2.294444 0.127148
2.297222 0.106529
2.300000 0.096220
2.302778 0.106529
2.305556 0.116838
2.308333 0.103093
2.311111 0.075601
2.313889 0.044674
2.316667 0.034364
2.319444 0.048110
2.322222 0.061856
2.325000 0.048110
2.327778 0.017182
2.330556 -0.010309
2.333333 -0.024055
2.336111 -0.010309
2.338889 0.003436
2.341667 0.010309
2.344444 0.000000
2.347222 -0.013746
2.350000 -0.013746
2.352778 0.000000
2.355556 0.013746
2.358333 0.017182
2.361111 0.003436
2.363889 -0.006873
2.366667 -0.020619
2.369444 -0.010309
2.372222 0.003436
2.375000 0.003436
2.377778 -0.013746
2.380556 -0.051546
2.383333 -0.082474
2.386111 -0.096220
2.388889 -0.116838
2.391667 -0.144330
2.394444 -0.151203
2.397222 -0.134021
2.400000 -0.051546
2.402778 0.106529
2.405556 0.319588
2.408333 0.556701
2.411111 0.790378
2.413889 0.975945
2.416667 0.982818
2.419444 0.838488
2.422222 0.731959
2.425000 0.694158
2.427778 0.652921
2.430556 0.539519
2.433333 0.333333
2.436111 0.106529
2.438889 -0.061856
2.441667 -0.144330
2.444444 -0.127148
2.447222 -0.072165
2.450000 -0.013746
2.452778 0.024055
2.455556 0.037801
2.458333 0.024055
2.461111 0.003436
2.463889 0.000000
2.466667 0.003436
2.469444 0.027491
2.472222 0.054983
2.475000 0.058419
2.477778 0.027491
2.480556 0.000000
2.483333 0.003436
2.486111 0.044674
2.488889 0.082474
2.491667 0.082474
2.494444 0.054983
2.497222 0.020619
2.500000 0.027491
2.502778 0.061856
2.505556 0.079038
2.508333 0.065292
2.511111 0.044674
2.513889 0.024055
2.516667 0.034364
2.519444 0.061856
2.522222 0.085911
2.525000 0.089347
2.527778 0.065292
2.530556 0.037801
2.533333 0.051546
2.536111 0.103093
2.538889 0.127148
2.541667 0.113402
2.544444 0.089347
2.547222 0.072165
2.550000 0.085911
2.552778 0.113402
2.555556 0.134021
2.558333 0.127148
2.561111 0.109966
2.563889 0.096220
2.566667 0.106529
2.569444 0.134021
2.572222 0.154639
2.575000 0.144330
2.577778 0.120275
2.580556 0.116838
2.583333 0.137457
2.586111 0.161512
2.588889 0.168385
2.591667 0.158076
2.594444 0.151203
2.597222 0.151203
2.600000 0.158076
2.602778 0.185567
2.605556 0.202749
2.608333 0.199313
2.611111 0.189003
2.613889 0.175258
2.616667 0.182131
2.619444 0.209622
2.622222 0.237113
2.625000 0.240550
2.627778 0.219931
2.630556 0.192440
2.633333 0.195876
2.636111 0.230241
2.638889 0.257732
2.641667 0.247423
2.644444 0.223368
2.647222 0.209622
2.650000 0.219931
2.652778 0.240550
2.655556 0.257732
2.658333 0.261168
2.661111 0.243986
2.663889 0.216495
2.666667 0.216495
2.669444 0.247423
2.672222 0.274914
2.675000 0.264605
2.677778 0.237113
2.680556 0.223368
2.683333 0.226804
2.686111 0.240550
2.688889 0.261168
2.691667 0.261168
2.694444 0.237113
2.697222 0.209622
2.700000 0.226804
2.702778 0.257732
2.705556 0.261168
2.708333 0.237113
2.711111 0.223368
2.713889 0.216495
2.716667 0.219931
2.719444 0.233677
2.722222 0.247423
2.725000 0.237113
2.727778 0.216495
2.730556 0.195876
2.733333 0.209622
2.736111 0.247423
2.738889 0.261168
2.741667 0.240550
2.744444 0.213058
2.747222 0.195876
2.750000 0.206186
2.752778 0.230241
2.755556 0.240550
2.758333 0.237113
2.761111 0.216495
2.763889 0.192440
2.766667 0.206186
2.769444 0.250859
2.772222 0.271478
2.775000 0.250859
2.777778 0.223368
2.780556 0.216495
2.783333 0.219931
2.786111 0.240550
2.788889 0.261168
2.791667 0.257732
2.794444 0.230241
2.797222 0.206186
2.800000 0.216495
2.802778 0.247423
2.805556 0.268041
2.808333 0.254296
2.811111 0.230241
2.813889 0.216495
2.816667 0.219931
2.819444 0.247423
2.822222 0.264605
2.825000 0.254296
2.827778 0.226804
2.830556 0.195876
2.833333 0.199313
2.836111 0.247423
2.838889 0.274914
2.841667 0.261168
2.844444 0.237113
2.847222 0.219931
2.850000 0.216495
2.852778 0.230241
2.855556 0.257732
2.858333 0.257732
2.861111 0.230241
2.863889 0.206186
2.866667 0.206186
2.869444 0.240550
2.872222 0.261168
2.875000 0.257732
2.877778 0.247423
2.880556 0.226804
2.883333 0.216495
2.886111 0.226804
2.888889 0.257732
2.891667 0.271478
2.894444 0.257732
2.897222 0.233677
2.900000 0.237113
2.902778 0.254296
2.905556 0.274914
2.908333 0.268041
2.911111 0.250859
2.913889 0.230241
2.916667 0.233677
2.919444 0.271478
2.922222 0.312715
2.925000 0.312715
2.927778 0.295533
2.930556 0.278351
2.933333 0.281787
2.936111 0.312715
2.938889 0.350515
2.941667 0.350515
2.944444 0.323024
2.947222 0.302405
2.950000 0.305842
2.952778 0.350515
2.955556 0.391753
2.958333 0.391753
2.961111 0.374570
2.963889 0.353952
2.966667 0.374570
2.969444 0.412371
2.972222 0.426117
2.975000 0.412371
2.977778 0.384880
2.980556 0.360825
2.983333 0.371134
2.986111 0.398625
2.988889 0.395189
2.991667 0.360825
2.994444 0.323024
2.997222 0.288660
3.000000 0.288660
3.002778 0.312715
3.005556 0.329897
3.008333 0.319588
3.011111 0.305842
3.013889 0.292096
3.016667 0.295533
3.019444 0.298969
3.022222 0.278351
3.025000 0.243986
3.027778 0.219931
3.030556 0.192440
3.033333 0.182131
3.036111 0.209622
3.038889 0.233677
3.041667 0.226804
3.044444 0.199313
3.047222 0.178694
3.050000 0.199313
3.052778 0.247423
3.055556 0.268041
3.058333 0.247423
3.061111 0.226804
3.063889 0.206186
3.066667 0.178694
3.069444 0.164948
3.072222 0.154639
3.075000 0.123711
3.077778 0.092784
3.080556 0.096220
3.083333 0.147766
3.086111 0.257732
3.088889 0.408935
3.091667 0.608247
3.094444 0.824742
3.097222 1.054983
3.100000 1.240550
3.102778 1.240550
3.105556 1.106529
3.108333 0.979381
3.111111 0.907216
3.113889 0.828179
3.116667 0.704467
3.119444 0.505155
3.122222 0.278351
3.125000 0.127148
3.127778 0.096220
3.130556 0.127148
3.133333 0.195876
3.136111 0.257732
3.138889 0.274914
3.141667 0.230241
3.144444 0.175258
3.147222 0.154639
3.150000 0.175258
3.152778 0.206186
3.155556 0.219931
3.158333 0.199313
3.161111 0.175258
3.163889 0.175258
3.166667 0.189003
3.169444 0.219931
3.172222 0.243986
3.175000 0.243986
3.177778 0.226804
3.180556 0.209622
3.183333 0.216495
3.186111 0.247423
3.188889 0.268041
3.191667 0.247423
3.194444 0.216495
3.197222 0.209622
3.200000 0.233677
3.202778 0.261168
3.205556 0.278351
3.208333 0.271478
3.211111 0.250859
3.213889 0.226804
3.216667 0.226804
3.219444 0.261168
3.222222 0.288660
3.225000 0.288660
3.227778 0.268041
3.230556 0.247423
3.233333 0.250859
3.236111 0.281787
3.238889 0.309278
3.241667 0.292096
3.244444 0.271478
3.247222 0.261168
3.250000 0.261168
3.252778 0.278351
3.255556 0.309278
3.258333 0.323024
3.261111 0.305842
3.263889 0.278351
3.266667 0.274914
3.269444 0.309278
3.272222 0.350515
3.275000 0.350515
3.277778 0.319588
3.280556 0.292096
3.283333 0.309278
3.286111 0.353952
3.288889 0.384880
3.291667 0.364261
3.294444 0.333333
3.297222 0.323024
3.300000 0.336770
3.302778 0.353952
3.305556 0.364261
3.308333 0.360825
3.311111 0.353952
3.313889 0.343643
3.316667 0.340206
3.319444 0.371134
3.322222 0.405498
3.325000 0.402062
3.327778 0.367698
3.330556 0.350515
3.333333 0.364261
3.336111 0.391753
3.338889 0.405498
3.341667 0.398625
3.344444 0.381443
3.347222 0.364261
3.350000 0.371134
3.352778 0.402062
3.355556 0.419244
3.358333 0.405498
3.361111 0.374570
3.363889 0.350515
3.366667 0.360825
3.369444 0.381443
3.372222 0.398625
3.375000 0.384880
3.377778 0.371134
3.380556 0.364261
3.383333 0.364261
3.386111 0.374570
3.388889 0.381443
3.391667 0.381443
3.394444 0.360825
3.397222 0.329897
3.400000 0.323024
3.402778 0.357388
3.405556 0.384880
3.408333 0.384880
3.411111 0.360825
3.413889 0.333333
3.416667 0.333333
3.419444 0.353952
3.422222 0.364261
3.425000 0.353952
3.427778 0.333333
3.430556 0.319588
3.433333 0.309278
3.436111 0.323024
3.438889 0.340206
3.441667 0.343643
3.444444 0.340206
3.447222 0.326460
3.450000 0.333333
3.452778 0.367698
3.455556 0.381443
3.458333 0.364261
3.461111 0.340206
3.463889 0.319588
3.466667 0.340206
3.469444 0.384880
3.472222 0.415808
3.475000 0.415808
3.477778 0.391753
3.480556 0.357388
3.483333 0.329897
3.486111 0.323024
3.488889 0.333333
3.491667 0.329897
3.494444 0.312715
3.497222 0.298969
3.500000 0.298969
3.502778 0.340206
3.505556 0.371134
3.508333 0.364261
3.511111 0.343643
3.513889 0.329897
3.516667 0.333333
3.519444 0.350515
3.522222 0.364261
3.525000 0.350515
3.527778 0.329897
3.530556 0.316151
3.533333 0.316151
3.536111 0.340206
3.538889 0.357388
3.541667 0.360825
3.544444 0.340206
3.547222 0.309278
3.550000 0.312715
3.552778 0.340206
3.555556 0.367698
3.558333 0.364261
3.561111 0.336770
3.563889 0.316151
3.566667 0.323024
3.569444 0.357388
3.572222 0.378007
3.575000 0.360825
3.577778 0.336770
3.580556 0.323024
3.583333 0.333333
3.586111 0.357388
3.588889 0.374570
3.591667 0.357388
3.594444 0.340206
3.597222 0.329897
3.600000 0.336770
3.602778 0.371134
3.605556 0.398625
3.608333 0.395189
3.611111 0.357388
3.613889 0.319588
3.616667 0.336770
3.619444 0.388316
3.622222 0.432990
3.625000 0.429553
3.627778 0.412371
3.630556 0.391753
3.633333 0.395189
3.636111 0.426117
3.638889 0.457045
3.641667 0.467354
3.644444 0.436426
3.647222 0.398625
3.650000 0.395189
3.652778 0.429553
3.655556 0.457045
3.658333 0.457045
3.661111 0.460481
3.663889 0.467354
3.666667 0.477663
3.669444 0.481100
3.672222 0.498282
3.675000 0.498282
3.677778 0.474227
3.680556 0.446735
3.683333 0.457045
3.686111 0.477663
3.688889 0.494845
3.691667 0.487973
3.694444 0.457045
3.697222 0.412371
3.700000 0.398625
3.702778 0.405498
3.705556 0.415808
3.708333 0.391753
3.711111 0.360825
3.713889 0.329897
3.716667 0.323024
3.719444 0.340206
3.722222 0.364261
3.725000 0.364261
3.727778 0.350515
3.730556 0.329897
3.733333 0.323024
3.736111 0.333333
3.738889 0.343643
3.741667 0.340206
3.744444 0.319588
3.747222 0.281787
3.750000 0.271478
3.752778 0.305842
3.755556 0.357388
3.758333 0.367698
3.761111 0.333333
3.763889 0.285223
3.766667 0.257732
3.769444 0.254296
3.772222 0.247423
3.775000 0.206186
3.777778 0.178694
3.780556 0.175258
3.783333 0.233677
3.786111 0.381443
3.788889 0.604811
3.791667 0.848797
3.794444 1.096220
3.797222 1.288660
3.800000 1.292096
3.802778 1.161512
3.805556 1.061856
3.808333 0.993127
3.811111 0.910653
3.813889 0.766323
3.816667 0.570447
3.819444 0.381443
3.822222 0.254296
3.825000 0.189003
3.827778 0.189003
3.830556 0.230241
3.833333 0.288660
3.836111 0.323024
3.838889 0.326460
3.841667 0.309278
3.844444 0.281787
3.847222 0.268041
3.850000 0.271478
3.852778 0.298969
3.855556 0.316151
3.858333 0.312715
3.861111 0.295533
3.863889 0.271478
3.866667 0.278351
3.869444 0.309278
3.872222 0.323024
3.875000 0.312715
3.877778 0.298969
3.880556 0.281787
3.883333 0.281787
3.886111 0.298969
3.888889 0.319588
3.891667 0.319588
3.894444 0.302405
3.897222 0.281787
3.900000 0.285223
3.902778 0.312715
3.905556 0.336770
3.908333 0.329897
3.911111 0.316151
3.913889 0.292096
3.916667 0.292096
3.919444 0.319588
3.922222 0.340206
3.925000 0.343643
3.927778 0.326460
3.930556 0.302405
3.933333 0.309278
3.936111 0.347079
3.938889 0.371134
3.941667 0.360825
3.944444 0.333333
3.947222 0.323024
3.950000 0.343643
3.952778 0.371134
3.955556 0.395189
3.958333 0.391753
3.961111 0.384880
3.963889 0.378007
3.966667 0.374570
3.969444 0.388316
3.972222 0.405498
3.975000 0.408935
3.977778 0.384880
3.980556 0.360825
3.983333 0.381443
3.986111 0.422680
3.988889 0.432990
3.991667 0.415808
3.994444 0.391753
3.997222 0.374570
4.000000 0.381443
4.002778 0.412371
4.005556 0.436426
4.008333 0.436426
4.011111 0.422680
4.013889 0.405498
4.016667 0.415808
4.019444 0.453608
4.022222 0.474227
4.025000 0.460481
4.027778 0.436426
4.030556 0.415808
4.033333 0.412371
4.036111 0.436426
4.038889 0.463918
4.041667 0.460481
4.044444 0.436426
4.047222 0.415808
4.050000 0.422680
4.052778 0.436426
4.055556 0.453608
4.058333 0.453608
4.061111 0.429553
4.063889 0.402062
4.066667 0.402062
4.069444 0.429553
4.072222 0.453608
4.075000 0.432990
4.077778 0.402062
4.080556 0.391753
4.083333 0.395189
4.086111 0.412371
4.088889 0.422680
4.091667 0.426117
4.094444 0.415808
4.097222 0.395189
4.100000 0.388316
4.102778 0.405498
4.105556 0.415808
4.108333 0.398625
4.111111 0.378007
4.113889 0.364261
4.116667 0.378007
4.119444 0.402062
4.122222 0.412371
4.125000 0.405498
4.127778 0.381443
4.130556 0.353952
4.133333 0.357388
4.136111 0.384880
4.138889 0.408935
4.141667 0.395189
4.144444 0.374570
4.147222 0.364261
4.150000 0.374570
4.152778 0.402062
4.155556 0.422680
4.158333 0.419244
4.161111 0.384880
4.163889 0.343643
4.166667 0.333333
4.169444 0.364261
4.172222 0.405498
4.175000 0.395189
4.177778 0.371134
4.180556 0.360825
4.183333 0.381443
4.186111 0.405498
4.188889 0.415808
4.191667 0.405498
4.194444 0.374570
4.197222 0.336770
4.200000 0.323024
4.202778 0.347079
4.205556 0.391753
4.208333 0.395189
4.211111 0.364261
4.213889 0.340206
4.216667 0.343643
4.219444 0.374570
4.222222 0.391753
4.225000 0.381443
4.227778 0.364261
4.230556 0.353952
4.233333 0.360825
4.236111 0.374570
4.238889 0.395189
4.241667 0.391753
4.244444 0.364261
4.247222 0.343643
4.250000 0.371134
4.252778 0.412371
4.255556 0.426117
4.258333 0.402062
4.261111 0.371134
4.263889 0.357388
4.266667 0.371134
4.269444 0.398625
4.272222 0.408935
4.275000 0.381443
4.277778 0.333333
4.280556 0.298969
4.283333 0.298969
4.286111 0.333333
4.288889 0.371134
4.291667 0.371134
4.294444 0.364261
4.297222 0.360825
4.300000 0.364261
4.302778 0.381443
4.305556 0.402062
4.308333 0.412371
4.311111 0.398625
4.313889 0.360825
4.316667 0.360825
4.319444 0.405498
4.322222 0.453608
4.325000 0.446735
4.327778 0.412371
4.330556 0.391753
4.333333 0.402062
4.336111 0.426117
4.338889 0.457045
4.341667 0.463918
4.344444 0.443299
4.347222 0.412371
4.350000 0.415808
4.352778 0.443299
4.355556 0.463918
4.358333 0.470790
4.361111 0.474227
4.363889 0.457045
4.366667 0.453608
4.369444 0.484536
4.372222 0.512027
4.375000 0.498282
4.377778 0.481100
4.380556 0.467354
4.383333 0.460481
4.386111 0.474227
4.388889 0.484536
4.391667 0.463918
4.394444 0.419244
4.397222 0.391753
4.400000 0.384880
4.402778 0.391753
4.405556 0.388316
4.408333 0.364261
4.411111 0.343643
4.413889 0.319588
4.416667 0.312715
4.419444 0.343643
4.422222 0.371134
4.425000 0.360825
4.427778 0.323024
4.430556 0.292096
4.433333 0.288660
4.436111 0.319588
4.438889 0.340206
4.441667 0.326460
4.444444 0.309278
4.447222 0.288660
4.450000 0.295533
4.452778 0.323024
4.455556 0.336770
4.458333 0.333333
4.461111 0.298969
4.463889 0.230241
4.466667 0.185567
4.469444 0.182131
4.472222 0.185567
4.475000 0.189003
4.477778 0.202749
4.480556 0.250859
4.483333 0.374570
4.486111 0.591065
4.488889 0.876289
4.491667 1.127148
4.494444 1.302405
4.497222 1.288660
4.500000 1.144330
4.502778 1.051546
4.505556 1.013746
4.508333 0.951890
4.511111 0.817869
4.513889 0.580756
4.516667 0.350515
4.519444 0.209622
4.522222 0.168385
4.525000 0.202749
4.527778 0.254296
4.530556 0.278351
4.533333 0.281787
4.536111 0.309278
4.538889 0.323024
4.541667 0.309278
4.544444 0.281787
4.547222 0.250859
4.550000 0.247423
4.552778 0.274914
4.555556 0.309278
4.558333 0.309278
4.561111 0.288660
4.563889 0.271478
4.566667 0.268041
4.569444 0.295533
4.572222 0.323024
4.575000 0.312715
4.577778 0.292096
4.580556 0.268041
4.583333 0.268041
4.586111 0.288660
4.588889 0.319588
4.591667 0.326460
4.594444 0.316151
4.597222 0.295533
4.600000 0.281787
4.602778 0.288660
4.605556 0.312715
4.608333 0.316151
4.611111 0.292096
4.613889 0.268041
4.616667 0.274914
4.619444 0.312715
4.622222 0.350515
4.625000 0.350515
4.627778 0.319588
4.630556 0.292096
4.633333 0.298969
4.636111 0.333333
4.638889 0.367698
4.641667 0.353952
4.644444 0.323024
4.647222 0.309278
4.650000 0.298969
4.652778 0.319588
4.655556 0.350515
4.658333 0.353952
4.661111 0.350515
4.663889 0.336770
4.666667 0.336770
4.669444 0.367698
4.672222 0.402062
4.675000 0.398625
4.677778 0.378007
4.680556 0.360825
4.683333 0.374570
4.686111 0.395189
4.688889 0.408935
4.691667 0.391753
4.694444 0.384880
4.697222 0.381443
4.700000 0.381443
4.702778 0.412371
4.705556 0.453608
4.708333 0.457045
4.711111 0.415808
4.713889 0.374570
4.716667 0.374570
4.719444 0.405498
4.722222 0.422680
4.725000 0.422680
4.727778 0.422680
4.730556 0.395189
4.733333 0.381443
4.736111 0.405498
4.738889 0.439863
4.741667 0.436426
4.744444 0.408935
4.747222 0.384880
4.750000 0.395189
4.752778 0.426117
4.755556 0.446735
4.758333 0.450172
4.761111 0.436426
4.763889 0.402062
4.766667 0.371134
4.769444 0.374570
4.772222 0.395189
4.775000 0.388316
4.777778 0.364261
4.780556 0.347079
4.783333 0.353952
4.786111 0.378007
4.788889 0.388316
4.791667 0.381443
4.794444 0.371134
4.797222 0.357388
4.800000 0.353952
4.802778 0.364261
4.805556 0.381443
4.808333 0.374570
4.811111 0.347079
4.813889 0.333333
4.816667 0.343643
4.819444 0.378007
4.822222 0.395189
4.825000 0.374570
4.827778 0.350515
4.830556 0.326460
4.833333 0.329897
4.836111 0.357388
4.838889 0.381443
4.841667 0.388316
4.844444 0.388316
4.847222 0.367698
4.850000 0.347079
4.852778 0.340206
4.855556 0.357388
4.858333 0.350515
4.861111 0.329897
4.863889 0.302405
4.866667 0.305842
4.869444 0.340206
4.872222 0.371134
4.875000 0.364261
4.877778 0.336770
4.880556 0.312715
4.883333 0.319588
4.886111 0.353952
4.888889 0.381443
4.891667 0.360825
4.894444 0.329897
4.897222 0.312715
4.900000 0.323024
4.902778 0.353952
4.905556 0.374570
4.908333 0.367698
4.911111 0.347079
4.913889 0.312715
4.916667 0.292096
4.919444 0.316151
4.922222 0.350515
4.925000 0.357388
4.927778 0.340206
4.930556 0.305842
4.933333 0.305842
4.936111 0.333333
4.938889 0.364261
4.941667 0.353952
4.944444 0.319588
4.947222 0.292096
4.950000 0.305842
4.952778 0.336770
4.955556 0.367698
4.958333 0.357388
4.961111 0.329897
4.963889 0.302405
4.966667 0.302405
4.969444 0.323024
4.972222 0.340206
4.975000 0.319588
4.977778 0.305842
4.980556 0.309278
4.983333 0.323024
4.986111 0.333333
4.988889 0.343643
4.991667 0.333333
4.994444 0.319588
4.997222 0.316151
5.000000 0.309278
5.002778 0.329897
5.005556 0.360825
5.008333 0.357388
5.011111 0.343643
5.013889 0.323024
5.016667 0.323024
5.019444 0.357388
5.022222 0.402062
5.025000 0.415808
5.027778 0.395189
5.030556 0.371134
5.033333 0.378007
5.036111 0.402062
5.038889 0.429553
5.041667 0.426117
5.044444 0.412371
5.047222 0.388316
5.050000 0.381443
5.052778 0.405498
5.055556 0.446735
5.058333 0.453608
5.061111 0.432990
5.063889 0.415808
5.066667 0.426117
5.069444 0.453608
5.072222 0.463918
5.075000 0.460481
5.077778 0.450172
5.080556 0.426117
5.083333 0.405498
5.086111 0.412371
5.088889 0.443299
5.091667 0.426117
5.094444 0.384880
5.097222 0.340206
5.100000 0.333333
5.102778 0.350515
5.105556 0.360825
5.108333 0.343643
5.111111 0.312715
5.113889 0.278351
5.116667 0.261168
5.119444 0.278351
5.122222 0.295533
5.125000 0.302405
5.127778 0.285223
5.130556 0.250859
5.133333 0.254296
5.136111 0.281787
5.138889 0.298969
5.141667 0.292096
5.144444 0.274914
5.147222 0.250859
5.150000 0.240550
5.152778 0.257732
5.155556 0.281787
5.158333 0.281787
5.161111 0.250859
5.163889 0.206186
5.166667 0.168385
5.169444 0.144330
5.172222 0.127148
5.175000 0.127148
5.177778 0.144330
5.180556 0.178694
5.183333 0.281787
5.186111 0.463918
5.188889 0.704467
5.191667 0.958763
5.194444 1.189003
5.197222 1.281787
5.200000 1.178694
5.202778 1.051546
5.205556 1.000000
5.208333 0.948454
5.211111 0.845361
5.213889 0.642612
5.216667 0.384880
5.219444 0.199313
5.222222 0.123711
5.225000 0.109966
5.227778 0.137457
5.230556 0.175258
5.233333 0.213058
5.236111 0.250859
5.238889 0.268041
5.241667 0.237113
5.244444 0.206186
5.247222 0.195876
5.250000 0.206186
5.252778 0.226804
5.255556 0.247423
5.258333 0.250859
5.261111 0.237113
5.263889 0.213058
5.266667 0.209622
5.269444 0.240550
5.272222 0.264605
5.275000 0.250859
5.277778 0.230241
5.280556 0.219931
5.283333 0.226804
5.286111 0.247423
5.288889 0.274914
5.291667 0.274914
5.294444 0.243986
5.297222 0.202749
5.300000 0.199313
5.302778 0.243986
5.305556 0.278351
5.308333 0.278351
5.311111 0.250859
5.313889 0.219931
5.316667 0.216495
5.319444 0.247423
5.322222 0.288660
5.325000 0.288660
5.327778 0.250859
5.330556 0.226804
5.333333 0.240550
5.336111 0.274914
5.338889 0.298969
5.341667 0.298969
5.344444 0.281787
5.347222 0.257732
5.350000 0.254296
5.352778 0.281787
5.355556 0.312715
5.358333 0.316151
5.361111 0.305842
5.363889 0.281787
5.366667 0.278351
5.369444 0.302405
5.372222 0.333333
5.375000 0.333333
5.377778 0.333333
5.380556 0.316151
5.383333 0.312715
5.386111 0.343643
5.388889 0.384880
5.391667 0.395189
5.394444 0.384880
5.397222 0.381443
5.400000 0.398625
5.402778 0.405498
5.405556 0.402062
5.408333 0.357388
5.411111 0.312715
5.413889 0.298969
5.416667 0.309278
5.419444 0.329897
5.422222 0.350515
5.425000 0.364261
5.427778 0.371134
5.430556 0.347079
5.433333 0.336770
5.436111 0.357388
5.438889 0.381443
5.441667 0.384880
5.444444 0.371134
5.447222 0.343643
5.450000 0.336770
5.452778 0.357388
5.455556 0.378007
5.458333 0.364261
5.461111 0.340206
5.463889 0.326460
5.466667 0.329897
5.469444 0.350515
5.472222 0.367698
5.475000 0.353952
5.477778 0.336770
5.480556 0.319588
5.483333 0.316151
5.486111 0.340206
5.488889 0.367698
5.491667 0.353952
5.494444 0.319588
5.497222 0.288660
5.500000 0.288660
5.502778 0.323024
5.505556 0.343643
5.508333 0.323024
5.511111 0.298969
5.513889 0.278351
5.516667 0.281787
5.519444 0.312715
5.522222 0.340206
5.525000 0.323024
5.527778 0.292096
5.530556 0.261168
5.533333 0.250859
5.536111 0.271478
5.538889 0.312715
5.541667 0.323024
5.544444 0.316151
5.547222 0.285223
5.550000 0.264605
5.552778 0.292096
5.555556 0.340206
5.558333 0.343643
5.561111 0.323024
5.563889 0.288660
5.566667 0.271478
5.569444 0.298969
5.572222 0.333333
5.575000 0.329897
5.577778 0.302405
5.580556 0.285223
5.583333 0.288660
5.586111 0.309278
5.588889 0.329897
5.591667 0.312715
5.594444 0.298969
5.597222 0.288660
5.600000 0.281787
5.602778 0.295533
5.605556 0.319588
5.608333 0.319588
5.611111 0.302405
5.613889 0.274914
5.616667 0.264605
5.619444 0.285223
5.622222 0.329897
5.625000 0.333333
5.627778 0.312715
5.630556 0.285223
5.633333 0.278351
5.636111 0.298969
5.638889 0.319588
5.641667 0.309278
5.644444 0.274914
5.647222 0.254296
5.650000 0.274914
5.652778 0.302405
5.655556 0.309278
5.658333 0.288660
5.661111 0.261168
5.663889 0.247423
5.666667 0.250859
5.669444 0.271478
5.672222 0.292096
5.675000 0.316151
5.677778 0.329897
5.680556 0.323024
5.683333 0.323024
5.686111 0.326460
5.688889 0.316151
5.691667 0.292096
5.694444 0.261168
5.697222 0.233677
5.700000 0.230241
5.702778 0.261168
5.705556 0.298969
5.708333 0.298969
5.711111 0.278351
5.713889 0.243986
5.716667 0.233677
5.719444 0.254296
5.722222 0.288660
5.725000 0.302405
5.727778 0.288660
5.730556 0.278351
5.733333 0.295533
5.736111 0.333333
5.738889 0.374570
5.741667 0.374570
5.744444 0.347079
5.747222 0.323024
5.750000 0.326460
5.752778 0.353952
5.755556 0.371134
5.758333 0.353952
5.761111 0.340206
5.763889 0.326460
5.766667 0.329897
5.769444 0.364261
5.772222 0.405498
5.775000 0.426117
5.777778 0.415808
5.780556 0.391753
5.783333 0.395189
5.786111 0.422680
5.788889 0.436426
5.791667 0.408935
5.794444 0.384880
5.797222 0.384880
5.800000 0.398625
5.802778 0.405498
5.805556 0.384880
5.808333 0.353952
5.811111 0.323024
5.813889 0.281787
5.816667 0.254296
5.819444 0.261168
5.822222 0.278351
5.825000 0.278351
5.827778 0.240550
5.830556 0.185567
5.833333 0.168385
5.836111 0.195876
5.838889 0.233677
5.841667 0.240550
5.844444 0.230241
5.847222 0.216495
5.850000 0.213058
5.852778 0.223368
5.855556 0.243986
5.858333 0.237113
5.861111 0.226804
5.863889 0.206186
5.866667 0.195876
5.869444 0.206186
5.872222 0.237113
5.875000 0.223368
5.877778 0.158076
5.880556 0.089347
5.883333 0.054983
5.886111 0.065292
5.888889 0.116838
5.891667 0.154639
5.894444 0.213058
5.897222 0.336770
5.900000 0.549828
5.902778 0.810997
5.905556 1.082474
5.908333 1.247423
5.911111 1.189003
5.913889 1.041237
5.916667 0.958763
5.919444 0.924399
5.922222 0.859107
5.925000 0.697595
5.927778 0.446735
5.930556 0.202749
5.933333 0.048110
5.936111 0.013746
5.938889 0.072165
5.941667 0.147766
5.944444 0.195876
5.947222 0.192440
5.950000 0.185567
5.952778 0.199313
5.955556 0.226804
5.958333 0.233677
5.961111 0.219931
5.963889 0.185567
5.966667 0.168385
5.969444 0.185567
5.972222 0.202749
5.975000 0.216495
5.977778 0.209622
5.980556 0.206186
5.983333 0.237113
5.986111 0.268041
5.988889 0.268041
5.991667 0.226804
5.994444 0.195876
5.997222 0.178694
6.000000 0.182131
6.002778 0.195876
6.005556 0.209622
6.008333 0.206186
6.011111 0.189003
6.013889 0.175258
6.016667 0.182131
6.019444 0.216495
6.022222 0.250859
6.025000 0.240550
6.027778 0.209622
6.030556 0.182131
6.033333 0.195876
6.036111 0.247423
6.038889 0.285223
6.041667 0.281787
6.044444 0.268041
6.047222 0.257732
6.050000 0.243986
6.052778 0.254296
6.055556 0.281787
6.058333 0.281787
6.061111 0.257732
6.063889 0.247423
6.066667 0.261168
6.069444 0.285223
6.072222 0.302405
6.075000 0.278351
6.077778 0.226804
6.080556 0.192440
6.083333 0.206186
6.086111 0.243986
6.088889 0.285223
6.091667 0.298969
6.094444 0.292096
6.097222 0.268041
6.100000 0.257732
6.102778 0.305842
6.105556 0.371134
6.108333 0.395189
6.111111 0.367698
6.113889 0.323024
6.116667 0.333333
6.119444 0.371134
6.122222 0.391753
6.125000 0.388316
6.127778 0.378007
6.130556 0.343643
6.133333 0.316151
6.136111 0.329897
6.138889 0.364261
6.141667 0.364261
6.144444 0.340206
6.147222 0.302405
6.150000 0.288660
6.152778 0.319588
6.155556 0.367698
6.158333 0.364261
6.161111 0.347079
6.163889 0.319588
6.166667 0.309278
6.169444 0.323024
6.172222 0.343643
6.175000 0.340206
6.177778 0.323024
6.180556 0.292096
6.183333 0.278351
6.186111 0.302405
6.188889 0.326460
6.191667 0.319588
6.194444 0.312715
6.197222 0.302405
6.200000 0.302405
6.202778 0.333333
6.205556 0.350515
6.208333 0.333333
6.211111 0.312715
6.213889 0.278351
6.216667 0.261168
6.219444 0.288660
6.222222 0.298969
6.225000 0.271478
6.227778 0.237113
6.230556 0.213058
6.233333 0.213058
6.236111 0.247423
6.238889 0.288660
6.241667 0.288660
6.244444 0.271478
6.247222 0.268041
6.250000 0.281787
6.252778 0.295533
6.255556 0.302405
6.258333 0.302405
6.261111 0.268041
6.263889 0.226804
6.266667 0.216495
6.269444 0.240550
6.272222 0.264605
6.275000 0.281787
6.277778 0.288660
6.280556 0.261168
6.283333 0.240550
6.286111 0.257732
6.288889 0.302405
6.291667 0.329897
6.294444 0.329897
6.297222 0.298969
6.300000 0.288660
6.302778 0.340206
6.305556 0.364261
6.308333 0.312715
6.311111 0.250859
6.313889 0.206186
6.316667 0.185567
6.319444 0.199313
6.322222 0.247423
6.325000 0.271478
6.327778 0.257732
6.330556 0.226804
6.333333 0.223368
6.336111 0.268041
6.338889 0.309278
6.341667 0.305842
6.344444 0.281787
6.347222 0.240550
6.350000 0.223368
6.352778 0.233677
6.355556 0.257732
6.358333 0.268041
6.361111 0.271478
6.363889 0.278351
6.366667 0.292096
6.369444 0.292096
6.372222 0.292096
6.375000 0.292096
6.377778 0.278351
6.380556 0.243986
6.383333 0.237113
6.386111 0.271478
6.388889 0.288660
6.391667 0.261168
6.394444 0.216495
6.397222 0.164948
6.400000 0.158076
6.402778 0.199313
6.405556 0.247423
6.408333 0.257732
6.411111 0.226804
6.413889 0.202749
6.416667 0.226804
6.419444 0.278351
6.422222 0.340206
6.425000 0.395189
6.427778 0.422680
6.430556 0.402062
6.433333 0.357388
6.436111 0.312715
6.438889 0.278351
6.441667 0.237113
6.444444 0.199313
6.447222 0.199313
6.450000 0.237113
6.452778 0.295533
6.455556 0.333333
6.458333 0.323024
6.461111 0.295533
6.463889 0.281787
6.466667 0.295533
6.469444 0.350515
6.472222 0.398625
6.475000 0.398625
6.477778 0.374570
6.480556 0.340206
6.483333 0.323024
6.486111 0.353952
6.488889 0.395189
6.491667 0.395189
6.494444 0.381443
6.497222 0.360825
6.500000 0.350515
6.502778 0.378007
6.505556 0.412371
6.508333 0.395189
6.511111 0.350515
6.513889 0.302405
6.516667 0.281787
6.519444 0.271478
6.522222 0.257732
6.525000 0.219931
6.527778 0.182131
6.530556 0.147766
6.533333 0.147766
6.536111 0.175258
6.538889 0.209622
6.541667 0.226804
6.544444 0.216495
6.547222 0.178694
6.550000 0.168385
6.552778 0.195876
6.555556 0.233677
6.558333 0.237113
6.561111 0.209622
6.563889 0.182131
6.566667 0.178694
6.569444 0.206186
6.572222 0.240550
6.575000 0.247423
6.577778 0.195876
6.580556 0.103093
6.583333 0.020619
6.586111 0.006873
6.588889 0.072165
6.591667 0.151203
6.594444 0.233677
6.597222 0.340206
6.600000 0.515464
6.602778 0.742268
6.605556 0.989691
6.608333 1.178694
6.611111 1.164948
6.613889 1.010309
6.616667 0.917526
6.619444 0.938144
6.622222 0.948454
6.625000 0.828179
6.627778 0.567010
6.630556 0.250859
6.633333 0.027491
6.636111 -0.030928
6.638889 0.020619
6.641667 0.096220
6.644444 0.144330
6.647222 0.151203
6.650000 0.154639
6.652778 0.168385
6.655556 0.185567
6.658333 0.189003
6.661111 0.195876
6.663889 0.192440
6.666667 0.175258
6.669444 0.164948
6.672222 0.164948
6.675000 0.175258
6.677778 0.195876
6.680556 0.209622
6.683333 0.195876
6.686111 0.178694
6.688889 0.175258
6.691667 0.168385
6.694444 0.154639
6.697222 0.134021
6.700000 0.127148
6.702778 0.154639
6.705556 0.189003
6.708333 0.189003
6.711111 0.175258
6.713889 0.144330
6.716667 0.144330
6.719444 0.178694
6.722222 0.216495
6.725000 0.216495
6.727778 0.192440
6.730556 0.161512
6.733333 0.154639
6.736111 0.185567
6.738889 0.219931
6.741667 0.219931
6.744444 0.209622
6.747222 0.195876
6.750000 0.209622
6.752778 0.250859
6.755556 0.305842
6.758333 0.323024
6.761111 0.298969
6.763889 0.237113
6.766667 0.182131
6.769444 0.175258
6.772222 0.195876
6.775000 0.195876
6.777778 0.195876
6.780556 0.178694
6.783333 0.182131
6.786111 0.209622
6.788889 0.247423
6.791667 0.271478
6.794444 0.271478
6.797222 0.247423
6.800000 0.230241
6.802778 0.257732
6.805556 0.326460
6.808333 0.391753
6.811111 0.422680
6.813889 0.402062
6.816667 0.357388
6.819444 0.316151
6.822222 0.278351
6.825000 0.226804
6.827778 0.199313
6.830556 0.192440
6.833333 0.230241
6.836111 0.305842
6.838889 0.360825
6.841667 0.340206
6.844444 0.292096
6.847222 0.257732
6.850000 0.247423
6.852778 0.257732
6.855556 0.288660
6.858333 0.309278
6.861111 0.309278
6.863889 0.288660
6.866667 0.274914
6.869444 0.278351
6.872222 0.298969
6.875000 0.302405
6.877778 0.278351
6.880556 0.247423
6.883333 0.247423
6.886111 0.278351
6.888889 0.316151
6.891667 0.343643
6.894444 0.360825
6.897222 0.333333
6.900000 0.298969
6.902778 0.274914
6.905556 0.257732
6.908333 0.209622
6.911111 0.158076
6.913889 0.134021
6.916667 0.154639
6.919444 0.219931
6.922222 0.288660
6.925000 0.302405
6.927778 0.281787
6.930556 0.240550
6.933333 0.209622
6.936111 0.206186
6.938889 0.230241
6.941667 0.230241
6.944444 0.219931
6.947222 0.195876
6.950000 0.175258
6.952778 0.192440
6.955556 0.250859
6.958333 0.312715
6.961111 0.333333
6.963889 0.285223
6.966667 0.226804
6.969444 0.199313
6.972222 0.192440
6.975000 0.175258
6.977778 0.175258
6.980556 0.199313
6.983333 0.223368
6.986111 0.240550
6.988889 0.268041
6.991667 0.261168
6.994444 0.206186
6.997222 0.154639
7.000000 0.147766
7.002778 0.178694
7.005556 0.216495
7.008333 0.230241
7.011111 0.226804
7.013889 0.216495
7.016667 0.223368
7.019444 0.247423
7.022222 0.298969
7.025000 0.340206
7.027778 0.309278
7.030556 0.209622
7.033333 0.127148
7.036111 0.123711
7.038889 0.158076
7.041667 0.168385
7.044444 0.161512
7.047222 0.154639
7.050000 0.154639
7.052778 0.178694
7.055556 0.206186
7.058333 0.195876
7.061111 0.175258
7.063889 0.168385
7.066667 0.185567
7.069444 0.219931
7.072222 0.261168
7.075000 0.281787
7.077778 0.274914
7.080556 0.237113
7.083333 0.199313
7.086111 0.182131
7.088889 0.171821
7.091667 0.144330
7.094444 0.113402
7.097222 0.092784
7.100000 0.096220
7.102778 0.140893
7.105556 0.192440
7.108333 0.202749
7.111111 0.178694
7.113889 0.144330
7.116667 0.137457
7.119444 0.168385
7.122222 0.219931
7.125000 0.219931
7.127778 0.185567
7.130556 0.147766
7.133333 0.164948
7.136111 0.219931
7.138889 0.247423
7.141667 0.216495
7.144444 0.195876
7.147222 0.178694
7.150000 0.161512
7.152778 0.144330
7.155556 0.164948
7.158333 0.192440
7.161111 0.199313
7.163889 0.199313
7.166667 0.195876
7.169444 0.182131
7.172222 0.154639
7.175000 0.120275
7.177778 0.106529
7.180556 0.113402
7.183333 0.130584
7.186111 0.154639
7.188889 0.175258
7.191667 0.171821
7.194444 0.168385
7.197222 0.164948
7.200000 0.182131
7.202778 0.213058
7.205556 0.250859
7.208333 0.257732
7.211111 0.237113
7.213889 0.209622
7.216667 0.230241
7.219444 0.285223
7.222222 0.316151
7.225000 0.285223
7.227778 0.230241
7.230556 0.202749
7.233333 0.209622
7.236111 0.213058
7.238889 0.206186
7.241667 0.161512
7.244444 0.092784
7.247222 0.034364
7.250000 0.020619
7.252778 0.037801
7.255556 0.082474
7.258333 0.089347
7.261111 0.048110
7.263889 0.010309
7.266667 0.010309
7.269444 0.027491
7.272222 0.051546
7.275000 0.051546
7.277778 0.024055
7.280556 -0.006873
7.283333 -0.030928
7.286111 -0.030928
7.288889 -0.003436
7.291667 0.000000
7.294444 -0.024055
7.297222 -0.065292
7.300000 -0.082474
7.302778 -0.061856
7.305556 -0.034364
7.308333 -0.048110
7.311111 -0.106529
7.313889 -0.185567
7.316667 -0.243986
7.319444 -0.237113
7.322222 -0.178694
7.325000 -0.116838
7.327778 -0.061856
7.330556 0.034364
7.333333 0.261168
7.336111 0.563574
7.338889 0.859107
7.341667 1.030928
7.344444 0.962199
7.347222 0.780069
7.350000 0.649485
7.352778 0.587629
7.355556 0.518900
7.358333 0.374570
7.361111 0.154639
7.363889 -0.065292
7.366667 -0.185567
7.369444 -0.192440
7.372222 -0.147766
7.375000 -0.106529
7.377778 -0.089347
7.380556 -0.109966
7.383333 -0.134021
7.386111 -0.127148
7.388889 -0.099656
7.391667 -0.109966
7.394444 -0.140893
7.397222 -0.164948
7.400000 -0.151203
7.402778 -0.109966
7.405556 -0.072165
7.408333 -0.075601
7.411111 -0.103093
7.413889 -0.123711
7.416667 -0.134021
7.419444 -0.127148
7.422222 -0.106529
7.425000 -0.103093
7.427778 -0.103093
7.430556 -0.127148
7.433333 -0.137457
7.436111 -0.137457
7.438889 -0.127148
7.441667 -0.151203
7.444444 -0.189003
7.447222 -0.230241
7.450000 -0.237113
7.452778 -0.202749
7.455556 -0.168385
7.458333 -0.168385
7.461111 -0.195876
7.463889 -0.226804
7.466667 -0.240550
7.469444 -0.223368
7.472222 -0.189003
7.475000 -0.189003
7.477778 -0.226804
7.480556 -0.278351
7.483333 -0.316151
7.486111 -0.309278
7.488889 -0.274914
7.491667 -0.271478
7.494444 -0.288660
7.497222 -0.298969
7.500000 -0.292096
7.502778 -0.274914
7.505556 -0.250859
7.508333 -0.264605
7.511111 -0.288660
7.513889 -0.292096
7.516667 -0.268041
7.519444 -0.247423
7.522222 -0.226804
7.525000 -0.230241
7.527778 -0.261168
7.530556 -0.302405
7.533333 -0.323024
7.536111 -0.305842
7.538889 -0.268041
7.541667 -0.247423
7.544444 -0.237113
7.547222 -0.261168
7.550000 -0.292096
7.552778 -0.281787
7.555556 -0.240550
7.558333 -0.219931
7.561111 -0.209622
7.563889 -0.206186
7.566667 -0.185567
7.569444 -0.140893
7.572222 -0.106529
7.575000 -0.127148
7.577778 -0.164948
7.580556 -0.209622
7.583333 -0.240550
7.586111 -0.240550
7.588889 -0.206186
7.591667 -0.175258
7.594444 -0.185567
7.597222 -0.226804
7.600000 -0.243986
7.602778 -0.230241
7.605556 -0.237113
7.608333 -0.261168
7.611111 -0.278351
7.613889 -0.292096
7.616667 -0.302405
7.619444 -0.288660
7.622222 -0.250859
7.625000 -0.216495
7.627778 -0.199313
7.630556 -0.226804
7.633333 -0.278351
7.636111 -0.312715
7.638889 -0.309278
7.641667 -0.302405
7.644444 -0.316151
7.647222 -0.347079
7.650000 -0.374570
7.652778 -0.367698
7.655556 -0.326460
7.658333 -0.329897
7.661111 -0.371134
7.663889 -0.422680
7.666667 -0.443299
7.669444 -0.426117
7.672222 -0.395189
7.675000 -0.381443
7.677778 -0.391753
7.680556 -0.426117
7.683333 -0.443299
7.686111 -0.432990
7.688889 -0.395189
7.691667 -0.391753
7.694444 -0.426117
7.697222 -0.467354
7.700000 -0.474227
7.702778 -0.443299
7.705556 -0.408935
7.708333 -0.415808
7.711111 -0.446735
7.713889 -0.477663
7.716667 -0.487973
7.719444 -0.484536
7.722222 -0.467354
7.725000 -0.477663
7.727778 -0.494845
7.730556 -0.512027
7.733333 -0.525773
7.736111 -0.525773
7.738889 -0.498282
7.741667 -0.484536
7.744444 -0.498282
7.747222 -0.525773
7.750000 -0.539519
7.752778 -0.518900
7.755556 -0.484536
7.758333 -0.487973
7.761111 -0.512027
7.763889 -0.542955
7.766667 -0.556701
7.769444 -0.539519
7.772222 -0.501718
7.775000 -0.484536
7.777778 -0.498282
7.780556 -0.525773
7.783333 -0.532646
7.786111 -0.515464
7.788889 -0.508591
7.791667 -0.536082
7.794444 -0.570447
7.797222 -0.570447
7.800000 -0.546392
7.802778 -0.515464
7.805556 -0.498282
7.808333 -0.536082
7.811111 -0.611684
7.813889 -0.680412
7.816667 -0.687285
7.819444 -0.659794
7.822222 -0.635739
7.825000 -0.639175
7.827778 -0.659794
7.830556 -0.690722
7.833333 -0.694158
7.836111 -0.673540
7.838889 -0.652921
7.841667 -0.646048
7.844444 -0.659794
7.847222 -0.694158
7.850000 -0.714777
7.852778 -0.694158
7.855556 -0.666667
7.858333 -0.666667
7.861111 -0.683849
7.863889 -0.711340
7.866667 -0.721649
7.869444 -0.707904
7.872222 -0.690722
7.875000 -0.690722
7.877778 -0.704467
7.880556 -0.725086
7.883333 -0.714777
7.886111 -0.694158
7.888889 -0.680412
7.891667 -0.680412
7.894444 -0.683849
7.897222 -0.694158
7.900000 -0.683849
7.902778 -0.659794
7.905556 -0.642612
7.908333 -0.646048
7.911111 -0.670103
7.913889 -0.701031
7.916667 -0.714777
7.919444 -0.701031
7.922222 -0.663230
7.925000 -0.632302
7.927778 -0.646048
7.930556 -0.701031
7.933333 -0.711340
7.936111 -0.659794
7.938889 -0.601375
7.941667 -0.608247
7.944444 -0.642612
7.947222 -0.683849
7.950000 -0.694158
7.952778 -0.652921
7.955556 -0.628866
7.958333 -0.659794
7.961111 -0.694158
7.963889 -0.714777
7.966667 -0.718213
7.969444 -0.704467
7.972222 -0.694158
7.975000 -0.704467
7.977778 -0.735395
7.980556 -0.786942
7.983333 -0.810997
7.986111 -0.807560
7.988889 -0.804124
7.991667 -0.807560
7.994444 -0.828179
7.997222 -0.855670
8.000000 -0.876289
8.002778 -0.855670
8.005556 -0.804124
8.008333 -0.783505
8.011111 -0.797251
8.013889 -0.824742
8.016667 -0.841924
8.019444 -0.824742
8.022222 -0.797251
8.025000 -0.807560
8.027778 -0.845361
8.030556 -0.886598
8.033333 -0.896907
8.036111 -0.876289
8.038889 -0.855670
8.041667 -0.900344
8.044444 -0.975945
8.047222 -1.044674
8.050000 -1.061856
8.052778 -1.024055
8.055556 -0.962199
8.058333 -0.893471
8.061111 -0.780069
8.063889 -0.594502
8.066667 -0.340206
8.069444 -0.051546
8.072222 0.209622
8.075000 0.247423
8.077778 0.103093
8.080556 -0.041237
8.083333 -0.144330
8.086111 -0.237113
8.088889 -0.371134
8.091667 -0.584192
8.094444 -0.810997
8.097222 -0.979381
8.100000 -1.034364
8.102778 -1.003436
8.105556 -0.931271
8.108333 -0.896907
8.111111 -0.910653
8.113889 -0.945017
8.116667 -0.962199
8.119444 -0.941581
8.122222 -0.900344
8.125000 -0.869416
8.127778 -0.872852
8.130556 -0.886598
8.133333 -0.890034
8.136111 -0.869416
8.138889 -0.855670
8.141667 -0.890034
8.144444 -0.951890
8.147222 -1.003436
8.150000 -1.010309
8.152778 -0.982818
8.155556 -0.934708
8.158333 -0.917526
8.161111 -0.927835
8.163889 -0.948454
8.166667 -0.955326
8.169444 -0.948454
8.172222 -0.917526
8.175000 -0.907216
8.177778 -0.920962
8.180556 -0.941581
8.183333 -0.945017
8.186111 -0.931271
8.188889 -0.903780
8.191667 -0.900344
8.194444 -0.910653
8.197222 -0.920962
8.200000 -0.920962
8.202778 -0.910653
8.205556 -0.907216
8.208333 -0.910653
8.211111 -0.924399
8.213889 -0.924399
8.216667 -0.920962
8.219444 -0.896907
8.222222 -0.852234
8.225000 -0.852234
8.227778 -0.896907
8.230556 -0.934708
8.233333 -0.941581
8.236111 -0.917526
8.238889 -0.869416
8.241667 -0.848797
8.244444 -0.855670
8.247222 -0.876289
8.250000 -0.883162
8.252778 -0.869416
8.255556 -0.852234
8.258333 -0.848797
8.261111 -0.862543
8.263889 -0.869416
8.266667 -0.859107
8.269444 -0.817869
8.272222 -0.762887
8.275000 -0.756014
8.277778 -0.790378
8.280556 -0.845361
8.283333 -0.859107
8.286111 -0.841924
8.288889 -0.800687
8.291667 -0.780069
8.294444 -0.797251
8.297222 -0.828179
8.300000 -0.855670
8.302778 -0.848797
8.305556 -0.814433
8.308333 -0.804124
8.311111 -0.810997
8.313889 -0.824742
8.316667 -0.821306
8.319444 -0.807560
8.322222 -0.783505
8.325000 -0.776632
8.327778 -0.807560
8.330556 -0.835052
8.333333 -0.835052
8.336111 -0.804124
8.338889 -0.780069
8.341667 -0.790378
8.344444 -0.810997
8.347222 -0.848797
8.350000 -0.879725
8.352778 -0.869416
8.355556 -0.824742
8.358333 -0.790378
8.361111 -0.810997
8.363889 -0.855670
8.366667 -0.896907
8.369444 -0.900344
8.372222 -0.876289
8.375000 -0.862543
8.377778 -0.865979
8.380556 -0.883162
8.383333 -0.886598
8.386111 -0.879725
8.388889 -0.855670
8.391667 -0.835052
8.394444 -0.841924
8.397222 -0.886598
8.400000 -0.920962
8.402778 -0.920962
8.405556 -0.900344
8.408333 -0.886598
8.411111 -0.890034
8.413889 -0.896907
8.416667 -0.896907
8.419444 -0.865979
8.422222 -0.817869
8.425000 -0.810997
8.427778 -0.838488
8.430556 -0.883162
8.433333 -0.907216
8.436111 -0.910653
8.438889 -0.883162
8.441667 -0.869416
8.444444 -0.879725
8.447222 -0.896907
8.450000 -0.903780
8.452778 -0.876289
8.455556 -0.835052
8.458333 -0.821306
8.461111 -0.848797
8.463889 -0.876289
8.466667 -0.879725
8.469444 -0.862543
8.472222 -0.835052
8.475000 -0.841924
8.477778 -0.869416
8.480556 -0.886598
8.483333 -0.862543
8.486111 -0.845361
8.488889 -0.838488
8.491667 -0.855670
8.494444 -0.886598
8.497222 -0.920962
8.500000 -0.938144
8.502778 -0.920962
8.505556 -0.886598
8.508333 -0.876289
8.511111 -0.886598
8.513889 -0.896907
8.516667 -0.903780
8.519444 -0.883162
8.522222 -0.845361
8.525000 -0.828179
8.527778 -0.845361
8.530556 -0.879725
8.533333 -0.896907
8.536111 -0.879725
8.538889 -0.841924
8.541667 -0.828179
8.544444 -0.828179
8.547222 -0.835052
8.550000 -0.828179
8.552778 -0.810997
8.555556 -0.786942
8.558333 -0.793814
8.561111 -0.828179
8.563889 -0.855670
8.566667 -0.859107
8.569444 -0.821306
8.572222 -0.769759
8.575000 -0.756014
8.577778 -0.793814
8.580556 -0.848797
8.583333 -0.855670
8.586111 -0.817869
8.588889 -0.769759
8.591667 -0.762887
8.594444 -0.786942
8.597222 -0.814433
8.600000 -0.817869
8.602778 -0.793814
8.605556 -0.766323
8.608333 -0.776632
8.611111 -0.800687
8.613889 -0.807560
8.616667 -0.800687
8.619444 -0.786942
8.622222 -0.776632
8.625000 -0.783505
8.627778 -0.807560
8.630556 -0.838488
8.633333 -0.845361
8.636111 -0.817869
8.638889 -0.766323
8.641667 -0.735395
8.644444 -0.735395
8.647222 -0.738832
8.650000 -0.752577
8.652778 -0.735395
8.655556 -0.701031
8.658333 -0.680412
8.661111 -0.680412
8.663889 -0.701031
8.666667 -0.711340
8.669444 -0.701031
8.672222 -0.687285
8.675000 -0.690722
8.677778 -0.721649
8.680556 -0.745704
8.683333 -0.742268
8.686111 -0.711340
8.688889 -0.649485
8.691667 -0.597938
8.694444 -0.604811
8.697222 -0.642612
8.700000 -0.680412
8.702778 -0.707904
8.705556 -0.711340
8.708333 -0.718213
8.711111 -0.742268
8.713889 -0.759450
8.716667 -0.752577
8.719444 -0.718213
8.722222 -0.687285
8.725000 -0.704467
8.727778 -0.742268
8.730556 -0.773196
8.733333 -0.793814
8.736111 -0.769759
8.738889 -0.735395
8.741667 -0.728522
8.744444 -0.738832
8.747222 -0.762887
8.750000 -0.776632
8.752778 -0.756014
8.755556 -0.725086
8.758333 -0.735395
8.761111 -0.769759
8.763889 -0.793814
8.766667 -0.804124
8.769444 -0.800687
8.772222 -0.776632
8.775000 -0.766323
8.777778 -0.773196
8.780556 -0.776632
8.783333 -0.786942
8.786111 -0.783505
8.788889 -0.776632
8.791667 -0.807560
8.794444 -0.865979
8.797222 -0.938144
8.800000 -0.948454
8.802778 -0.896907
8.805556 -0.807560
8.808333 -0.718213
8.811111 -0.577320
8.813889 -0.360825
8.816667 -0.113402
8.819444 0.134021
8.822222 0.319588
8.825000 0.285223
8.827778 0.147766
8.830556 0.037801
8.833333 -0.051546
8.836111 -0.151203
8.838889 -0.285223
8.841667 -0.487973
8.844444 -0.704467
8.847222 -0.865979
8.850000 -0.920962
8.852778 -0.879725
8.855556 -0.776632
8.858333 -0.725086
8.861111 -0.745704
8.863889 -0.776632
8.866667 -0.786942
8.869444 -0.773196
8.872222 -0.745704
8.875000 -0.742268
8.877778 -0.745704
8.880556 -0.766323
8.883333 -0.783505
8.886111 -0.773196
8.888889 -0.735395
8.891667 -0.721649
8.894444 -0.735395
8.897222 -0.762887
8.900000 -0.766323
8.902778 -0.749141
8.905556 -0.725086
8.908333 -0.718213
8.911111 -0.735395
8.913889 -0.749141
8.916667 -0.745704
8.919444 -0.711340
8.922222 -0.670103
8.925000 -0.670103
8.927778 -0.687285
8.930556 -0.701031
8.933333 -0.721649
8.936111 -0.731959
8.938889 -0.711340
8.941667 -0.711340
8.944444 -0.721649
8.947222 -0.731959
8.950000 -0.728522
8.952778 -0.701031
8.955556 -0.666667
8.958333 -0.673540
8.961111 -0.683849
8.963889 -0.683849
8.966667 -0.673540
8.969444 -0.635739
8.972222 -0.601375
8.975000 -0.608247
8.977778 -0.642612
8.980556 -0.666667
8.983333 -0.690722
8.986111 -0.690722
8.988889 -0.652921
8.991667 -0.628866
8.994444 -0.628866
8.997222 -0.632302
9.000000 -0.628866
9.002778 -0.608247
9.005556 -0.549828
9.008333 -0.508591
9.011111 -0.508591
9.013889 -0.560137
9.016667 -0.597938
9.019444 -0.601375
9.022222 -0.567010
9.025000 -0.542955
9.027778 -0.549828
9.030556 -0.570447
9.033333 -0.584192
9.036111 -0.549828
9.038889 -0.508591
9.041667 -0.508591
9.044444 -0.515464
9.047222 -0.512027
9.050000 -0.515464
9.052778 -0.522337
9.055556 -0.512027
9.058333 -0.505155
9.061111 -0.505155
9.063889 -0.518900
9.066667 -0.536082
9.069444 -0.515464
9.072222 -0.467354
9.075000 -0.457045
9.077778 -0.477663
9.080556 -0.508591
9.083333 -0.522337
9.086111 -0.501718
9.088889 -0.470790
9.091667 -0.467354
9.094444 -0.487973
9.097222 -0.508591
9.100000 -0.515464
9.102778 -0.505155
9.105556 -0.484536
9.108333 -0.487973
9.111111 -0.515464
9.113889 -0.556701
9.116667 -0.560137
9.119444 -0.505155
9.122222 -0.457045
9.125000 -0.467354
9.127778 -0.515464
9.130556 -0.563574
9.133333 -0.591065
9.136111 -0.577320
9.138889 -0.536082
9.141667 -0.505155
9.144444 -0.518900
9.147222 -0.556701
9.150000 -0.563574
9.152778 -0.542955
9.155556 -0.501718
9.158333 -0.487973
9.161111 -0.505155
9.163889 -0.525773
9.166667 -0.529210
9.169444 -0.515464
9.172222 -0.477663
9.175000 -0.453608
9.177778 -0.457045
9.180556 -0.487973
9.183333 -0.515464
9.186111 -0.508591
9.188889 -0.474227
9.191667 -0.467354
9.194444 -0.477663
9.197222 -0.494845
9.200000 -0.494845
9.202778 -0.474227
9.205556 -0.436426
9.208333 -0.432990
9.211111 -0.450172
9.213889 -0.474227
9.216667 -0.477663
9.219444 -0.460481
9.222222 -0.422680
9.225000 -0.419244
9.227778 -0.436426
9.230556 -0.463918
9.233333 -0.481100
9.236111 -0.477663
9.238889 -0.436426
9.241667 -0.408935
9.244444 -0.422680
9.247222 -0.453608
9.250000 -0.463918
9.252778 -0.436426
9.255556 -0.405498
9.258333 -0.402062
9.261111 -0.422680
9.263889 -0.443299
9.266667 -0.453608
9.269444 -0.436426
9.272222 -0.405498
9.275000 -0.391753
9.277778 -0.419244
9.280556 -0.446735
9.283333 -0.453608
9.286111 -0.432990
9.288889 -0.398625
9.291667 -0.381443
9.294444 -0.395189
9.297222 -0.415808
9.300000 -0.419244
9.302778 -0.405498
9.305556 -0.371134
9.308333 -0.371134
9.311111 -0.384880
9.313889 -0.391753
9.316667 -0.405498
9.319444 -0.391753
9.322222 -0.360825
9.325000 -0.350515
9.327778 -0.360825
9.330556 -0.384880
9.333333 -0.395189
9.336111 -0.388316
9.338889 -0.360825
9.341667 -0.353952
9.344444 -0.360825
9.347222 -0.364261
9.350000 -0.381443
9.352778 -0.353952
9.355556 -0.309278
9.358333 -0.302405
9.361111 -0.336770
9.363889 -0.374570
9.366667 -0.381443
9.369444 -0.353952
9.372222 -0.319588
9.375000 -0.305842
9.377778 -0.333333
9.380556 -0.360825
9.383333 -0.357388
9.386111 -0.329897
9.388889 -0.302405
9.391667 -0.302405
9.394444 -0.329897
9.397222 -0.343643
9.400000 -0.333333
9.402778 -0.302405
9.405556 -0.257732
9.408333 -0.230241
9.411111 -0.237113
9.413889 -0.257732
9.416667 -0.254296
9.419444 -0.240550
9.422222 -0.243986
9.425000 -0.230241
9.427778 -0.206186
9.430556 -0.226804
9.433333 -0.261168
9.436111 -0.219931
9.438889 -0.147766
9.441667 -0.134021
9.444444 -0.175258
9.447222 -0.209622
9.450000 -0.223368
9.452778 -0.226804
9.455556 -0.206186
9.458333 -0.189003
9.461111 -0.195876
9.463889 -0.219931
9.466667 -0.240550
9.469444 -0.243986
9.472222 -0.237113
9.475000 -0.233677
9.477778 -0.243986
9.480556 -0.261168
9.483333 -0.274914
9.486111 -0.271478
9.488889 -0.254296
9.491667 -0.257732
9.494444 -0.281787
9.497222 -0.319588
9.500000 -0.333333
9.502778 -0.316151
9.505556 -0.281787
9.508333 -0.271478
9.511111 -0.278351
9.513889 -0.288660
9.516667 -0.292096
9.519444 -0.278351
9.522222 -0.257732
9.525000 -0.250859
9.527778 -0.271478
9.530556 -0.309278
9.533333 -0.333333
9.536111 -0.305842
9.538889 -0.247423
9.541667 -0.237113
9.544444 -0.274914
9.547222 -0.336770
9.550000 -0.408935
9.552778 -0.450172
9.555556 -0.426117
9.558333 -0.378007
9.561111 -0.329897
9.563889 -0.243986
9.566667 -0.065292
9.569444 0.213058
9.572222 0.532646
9.575000 0.790378
9.577778 0.845361
9.580556 0.690722
9.583333 0.536082
9.586111 0.474227
9.588889 0.450172
9.591667 0.350515
9.594444 0.151203
9.597222 -0.082474
9.600000 -0.268041
9.602778 -0.353952
9.605556 -0.353952
9.608333 -0.319588
9.611111 -0.278351
9.613889 -0.278351
9.616667 -0.281787
9.619444 -0.250859
9.622222 -0.219931
9.625000 -0.226804
9.627778 -0.247423
9.630556 -0.257732
9.633333 -0.268041
9.636111 -0.261168
9.638889 -0.216495
9.641667 -0.185567
9.644444 -0.195876
9.647222 -0.237113
9.650000 -0.261168
9.652778 -0.257732
9.655556 -0.240550
9.658333 -0.233677
9.661111 -0.230241
9.663889 -0.243986
9.666667 -0.261168
9.669444 -0.247423
9.672222 -0.195876
9.675000 -0.168385
9.677778 -0.185567
9.680556 -0.209622
9.683333 -0.213058
9.686111 -0.185567
9.688889 -0.144330
9.691667 -0.137457
9.694444 -0.175258
9.697222 -0.202749
9.700000 -0.195876
9.702778 -0.168385
9.705556 -0.134021
9.708333 -0.130584
9.711111 -0.154639
9.713889 -0.189003
9.716667 -0.216495
9.719444 -0.209622
9.722222 -0.168385
9.725000 -0.134021
9.727778 -0.116838
9.730556 -0.127148
9.733333 -0.134021
9.736111 -0.127148
9.738889 -0.103093
9.741667 -0.092784
9.744444 -0.096220
9.747222 -0.099656
9.750000 -0.103093
9.752778 -0.096220
9.755556 -0.065292
9.758333 -0.044674
9.761111 -0.051546
9.763889 -0.072165
9.766667 -0.085911
9.769444 -0.085911
9.772222 -0.054983
9.775000 -0.027491
9.777778 -0.010309
9.780556 -0.003436
9.783333 0.000000
9.786111 0.010309
9.788889 0.041237
9.791667 0.037801
9.794444 -0.006873
9.797222 -0.058419
9.800000 -0.075601
9.802778 -0.061856
9.805556 -0.013746
9.808333 0.003436
9.811111 0.003436
9.813889 0.000000
9.816667 -0.010309
9.819444 0.000000
9.822222 0.030928
9.825000 0.044674
9.827778 0.030928
9.830556 0.010309
9.833333 0.000000
9.836111 0.006873
9.838889 0.027491
9.841667 0.034364
9.844444 0.020619
9.847222 -0.003436
9.850000 -0.020619
9.852778 -0.013746
9.855556 0.013746
9.858333 0.027491
9.861111 0.013746
9.863889 -0.013746
9.866667 -0.030928
9.869444 -0.017182
9.872222 0.010309
9.875000 0.017182
9.877778 0.000000
9.880556 -0.024055
9.883333 -0.041237
9.886111 -0.030928
9.888889 0.000000
9.891667 0.013746
9.894444 0.006873
9.897222 -0.013746
9.900000 -0.030928
9.902778 -0.013746
9.905556 0.017182
9.908333 0.020619
9.911111 0.000000
9.913889 -0.024055
9.916667 -0.041237
9.919444 -0.030928
9.922222 0.000000
9.925000 0.017182
9.927778 0.013746
9.930556 -0.003436
9.933333 -0.013746
9.936111 0.000000
9.938889 0.030928
9.941667 0.044674
9.944444 0.034364
9.947222 0.006873
9.950000 -0.006873
9.952778 0.000000
9.955556 0.034364
9.958333 0.044674
9.961111 0.030928
9.963889 0.006873
9.966667 0.000000
9.969444 0.006873
9.972222 0.037801
9.975000 0.054983
9.977778 0.041237
9.980556 0.013746
9.983333 0.000000
9.986111 0.003436
9.988889 0.034364
9.991667 0.051546
9.994444 0.041237
9.997222 0.017182
10.000000 0.003436
10.002778 0.010309
10.005556 0.034364
10.008333 0.051546
10.011111 0.041237
10.013889 0.020619
10.016667 0.003436
10.019444 0.013746
10.022222 0.044674
10.025000 0.058419
10.027778 0.041237
10.030556 0.010309
10.033333 -0.006873
10.036111 0.000000
10.038889 0.034364
10.041667 0.061856
10.044444 0.065292
10.047222 0.044674
10.050000 0.027491
10.052778 0.030928
10.055556 0.051546
10.058333 0.061856
10.061111 0.044674
10.063889 0.020619
10.066667 0.013746
10.069444 0.030928
10.072222 0.061856
10.075000 0.072165
10.077778 0.054983
10.080556 0.027491
10.083333 0.013746
10.086111 0.020619
10.088889 0.058419
10.091667 0.075601
10.094444 0.061856
10.097222 0.024055
10.100000 0.000000
10.102778 0.006873
10.105556 0.041237
10.108333 0.068729
10.111111 0.075601
10.113889 0.061856
10.116667 0.044674
10.119444 0.048110
10.122222 0.072165
10.125000 0.082474
10.127778 0.065292
10.130556 0.044674
10.133333 0.034364
10.136111 0.041237
10.138889 0.065292
10.141667 0.072165
10.144444 0.054983
10.147222 0.041237
10.150000 0.034364
10.152778 0.061856
10.155556 0.099656
10.158333 0.123711
10.161111 0.123711
10.163889 0.106529
10.166667 0.099656
10.169444 0.116838
10.172222 0.151203
10.175000 0.168385
10.177778 0.161512
10.180556 0.134021
10.183333 0.116838
10.186111 0.123711
10.188889 0.154639
10.191667 0.171821
10.194444 0.164948
10.197222 0.147766
10.200000 0.147766
10.202778 0.171821
10.205556 0.206186
10.208333 0.219931
10.211111 0.209622
10.213889 0.195876
10.216667 0.175258
10.219444 0.158076
10.222222 0.168385
10.225000 0.185567
10.227778 0.192440
10.230556 0.171821
10.233333 0.137457
10.236111 0.116838
10.238889 0.134021
10.241667 0.147766
10.244444 0.140893
10.247222 0.106529
10.250000 0.072165
10.252778 0.065292
10.255556 0.085911
10.258333 0.099656
10.261111 0.092784
10.263889 0.075601
10.266667 0.054983
10.269444 0.051546
10.272222 0.075601
10.275000 0.096220
10.277778 0.092784
10.280556 0.068729
10.283333 0.048110
10.286111 0.044674
10.288889 0.068729
10.291667 0.092784
10.294444 0.089347
10.297222 0.065292
10.300000 0.044674
10.302778 0.044674
10.305556 0.065292
10.308333 0.051546
10.311111 0.000000
10.313889 -0.082474
10.316667 -0.120275
10.319444 -0.085911
10.322222 -0.017182
10.325000 0.044674
10.327778 0.144330
10.330556 0.319588
10.333333 0.573883
10.336111 0.852234
10.338889 1.106529
10.341667 1.147766
10.344444 1.000000
10.347222 0.862543
10.350000 0.786942
10.352778 0.735395
10.355556 0.649485
10.358333 0.450172
10.361111 0.192440
10.363889 -0.003436
10.366667 -0.092784
10.369444 -0.058419
10.372222 0.034364
10.375000 0.099656
10.377778 0.106529
10.380556 0.082474
10.383333 0.061856
10.386111 0.068729
10.388889 0.099656
10.391667 0.116838
10.394444 0.106529
10.397222 0.085911
10.400000 0.061856
10.402778 0.051546
10.405556 0.075601
10.408333 0.106529
10.411111 0.106529
10.413889 0.085911
10.416667 0.068729
10.419444 0.075601
10.422222 0.109966
10.425000 0.116838
10.427778 0.096220
10.430556 0.082474
10.433333 0.082474
10.436111 0.085911
10.438889 0.103093
10.441667 0.106529
10.444444 0.089347
10.447222 0.065292
10.450000 0.061856
10.452778 0.072165
10.455556 0.099656
10.458333 0.134021
10.461111 0.144330
10.463889 0.120275
10.466667 0.092784
10.469444 0.092784
10.472222 0.120275
10.475000 0.144330
10.477778 0.140893
10.480556 0.120275
10.483333 0.109966
10.486111 0.127148
10.488889 0.154639
10.491667 0.151203
10.494444 0.134021
10.497222 0.113402
10.500000 0.113402
10.502778 0.137457
10.505556 0.185567
10.508333 0.202749
10.511111 0.185567
10.513889 0.154639
10.516667 0.137457
10.519444 0.158076
10.522222 0.206186
10.525000 0.226804
10.527778 0.209622
10.530556 0.189003
10.533333 0.189003
10.536111 0.202749
10.538889 0.226804
10.541667 0.240550
10.544444 0.237113
10.547222 0.223368
10.550000 0.206186
10.552778 0.213058
10.555556 0.257732
10.558333 0.271478
10.561111 0.250859
10.563889 0.219931
10.566667 0.216495
10.569444 0.230241
10.572222 0.261168
10.575000 0.292096
10.577778 0.298969
10.580556 0.254296
10.583333 0.226804
10.586111 0.233677
10.588889 0.261168
10.591667 0.271478
10.594444 0.257732
10.597222 0.233677
10.600000 0.219931
10.602778 0.223368
10.605556 0.261168
10.608333 0.281787
10.611111 0.264605
10.613889 0.219931
10.616667 0.189003
10.619444 0.206186
10.622222 0.257732
10.625000 0.271478
10.627778 0.247423
10.630556 0.206186
10.633333 0.171821
10.636111 0.168385
10.638889 0.206186
10.641667 0.247423
10.644444 0.237113
10.647222 0.199313
10.650000 0.168385
10.652778 0.168385
10.655556 0.206186
10.658333 0.219931
10.661111 0.202749
10.663889 0.178694
10.666667 0.168385
10.669444 0.171821
10.672222 0.195876
10.675000 0.189003
10.677778 0.171821
10.680556 0.168385
10.683333 0.178694
10.686111 0.195876
10.688889 0.219931
10.691667 0.223368
10.694444 0.213058
10.697222 0.192440
10.700000 0.168385
10.702778 0.178694
10.705556 0.226804
10.708333 0.250859
10.711111 0.223368
10.713889 0.185567
10.716667 0.175258
10.719444 0.195876
10.722222 0.223368
10.725000 0.237113
10.727778 0.226804
10.730556 0.206186
10.733333 0.199313
10.736111 0.202749
10.738889 0.219931
10.741667 0.219931
10.744444 0.213058
10.747222 0.202749
10.750000 0.168385
10.752778 0.154639
10.755556 0.206186
10.758333 0.250859
10.761111 0.230241
10.763889 0.182131
10.766667 0.171821
10.769444 0.202749
10.772222 0.243986
10.775000 0.243986
10.777778 0.213058
10.780556 0.185567
10.783333 0.168385
10.786111 0.178694
10.788889 0.209622
10.791667 0.243986
10.794444 0.247423
10.797222 0.226804
10.800000 0.216495
10.802778 0.216495
10.805556 0.226804
10.808333 0.230241
10.811111 0.209622
10.813889 0.182131
10.816667 0.182131
10.819444 0.195876
10.822222 0.209622
10.825000 0.216495
10.827778 0.223368
10.830556 0.209622
10.833333 0.175258
10.836111 0.168385
10.838889 0.199313
10.841667 0.226804
10.844444 0.226804
10.847222 0.209622
10.850000 0.185567
10.852778 0.175258
10.855556 0.189003
10.858333 0.206186
10.861111 0.202749
10.863889 0.185567
10.866667 0.175258
10.869444 0.192440
10.872222 0.226804
10.875000 0.230241
10.877778 0.209622
10.880556 0.178694
10.883333 0.161512
10.886111 0.178694
10.888889 0.216495
10.891667 0.223368
10.894444 0.199313
10.897222 0.185567
10.900000 0.185567
10.902778 0.199313
10.905556 0.226804
10.908333 0.240550
10.911111 0.223368
10.913889 0.189003
10.916667 0.182131
10.919444 0.219931
10.922222 0.271478
10.925000 0.298969
10.927778 0.298969
10.930556 0.292096
10.933333 0.264605
10.936111 0.254296
10.938889 0.271478
10.941667 0.274914
10.944444 0.250859
10.947222 0.230241
10.950000 0.230241
10.952778 0.223368
10.955556 0.257732
10.958333 0.323024
10.961111 0.371134
10.963889 0.350515
10.966667 0.316151
10.969444 0.319588
10.972222 0.347079
10.975000 0.353952
10.977778 0.333333
10.980556 0.319588
10.983333 0.309278
10.986111 0.292096
10.988889 0.292096
10.991667 0.302405
10.994444 0.278351
10.997222 0.223368
11.000000 0.189003
11.002778 0.199313
11.005556 0.247423
11.008333 0.285223
11.011111 0.288660
11.013889 0.271478
11.016667 0.250859
11.019444 0.243986
11.022222 0.250859
11.025000 0.219931
11.027778 0.168385
11.030556 0.127148
11.033333 0.106529
11.036111 0.116838
11.038889 0.151203
11.041667 0.178694
11.044444 0.206186
11.047222 0.216495
11.050000 0.178694
11.052778 0.120275
11.055556 0.113402
11.058333 0.127148
11.061111 0.134021
11.063889 0.127148
11.066667 0.113402
11.069444 0.096220
11.072222 0.082474
11.075000 0.013746
11.077778 -0.034364
11.080556 -0.010309
11.083333 0.092784
11.086111 0.292096
11.088889 0.560137
11.091667 0.831615
11.094444 1.072165
11.097222 1.216495
11.100000 1.185567
11.102778 1.092784
11.105556 1.037801
11.108333 0.993127
11.111111 0.896907
11.113889 0.694158
11.116667 0.422680
11.119444 0.168385
11.122222 0.020619
11.125000 -0.003436
11.127778 0.034364
11.130556 0.075601
11.133333 0.096220
11.136111 0.106529
11.138889 0.120275
11.141667 0.123711
11.144444 0.113402
11.147222 0.103093
11.150000 0.096220
11.152778 0.106529
11.155556 0.137457
11.158333 0.154639
11.161111 0.168385
11.163889 0.168385
11.166667 0.137457
11.169444 0.123711
11.172222 0.151203
11.175000 0.175258
11.177778 0.185567
11.180556 0.178694
11.183333 0.158076
11.186111 0.147766
11.188889 0.168385
11.191667 0.189003
11.194444 0.192440
11.197222 0.182131
11.200000 0.164948
11.202778 0.168385
11.205556 0.192440
11.208333 0.206186
11.211111 0.189003
11.213889 0.182131
11.216667 0.206186
11.219444 0.230241
11.222222 0.254296
11.225000 0.250859
11.227778 0.230241
11.230556 0.219931
11.233333 0.209622
11.236111 0.192440
11.238889 0.195876
11.241667 0.230241
11.244444 0.254296
11.247222 0.247423
11.250000 0.189003
11.252778 0.144330
11.255556 0.154639
11.258333 0.199313
11.261111 0.243986
11.263889 0.250859
11.266667 0.237113
11.269444 0.237113
11.272222 0.240550
11.275000 0.230241
11.277778 0.240550
11.280556 0.254296
11.283333 0.261168
11.286111 0.250859
11.288889 0.261168
11.291667 0.278351
11.294444 0.288660
11.297222 0.302405
11.300000 0.323024
11.302778 0.323024
11.305556 0.323024
11.308333 0.312715
11.311111 0.312715
11.313889 0.319588
11.316667 0.312715
11.319444 0.298969
11.322222 0.309278
11.325000 0.323024
11.327778 0.323024
11.330556 0.326460
11.333333 0.343643
11.336111 0.360825
11.338889 0.367698
11.341667 0.364261
11.344444 0.343643
11.347222 0.312715
11.350000 0.292096
11.352778 0.292096
11.355556 0.329897
11.358333 0.343643
11.361111 0.326460
11.363889 0.302405
11.366667 0.285223
11.369444 0.288660
11.372222 0.312715
11.375000 0.323024
11.377778 0.309278
11.380556 0.288660
11.383333 0.268041
11.386111 0.261168
11.388889 0.292096
11.391667 0.319588
11.394444 0.298969
11.397222 0.268041
11.400000 0.271478
11.402778 0.281787
11.405556 0.312715
11.408333 0.333333
11.411111 0.312715
11.413889 0.281787
11.416667 0.278351
11.419444 0.302405
11.422222 0.329897
11.425000 0.329897
11.427778 0.302405
11.430556 0.288660
11.433333 0.288660
11.436111 0.271478
11.438889 0.274914
11.441667 0.278351
11.444444 0.240550
11.447222 0.206186
11.450000 0.237113
11.452778 0.309278
11.455556 0.350515
11.458333 0.343643
11.461111 0.302405
11.463889 0.257732
11.466667 0.250859
11.469444 0.261168
11.472222 0.278351
11.475000 0.292096
11.477778 0.302405
11.480556 0.292096
11.483333 0.261168
11.486111 0.240550
11.488889 0.254296
11.491667 0.271478
11.494444 0.285223
11.497222 0.292096
11.500000 0.278351
11.502778 0.271478
11.505556 0.302405
11.508333 0.329897
11.511111 0.323024
11.513889 0.295533
11.516667 0.264605
11.519444 0.250859
11.522222 0.274914
11.525000 0.302405
11.527778 0.298969
11.530556 0.281787
11.533333 0.271478
11.536111 0.278351
11.538889 0.309278
11.541667 0.353952
11.544444 0.378007
11.547222 0.371134
11.550000 0.329897
11.552778 0.285223
11.555556 0.261168
11.558333 0.257732
11.561111 0.247423
11.563889 0.226804
11.566667 0.226804
11.569444 0.254296
11.572222 0.278351
11.575000 0.285223
11.577778 0.278351
11.580556 0.264605
11.583333 0.250859
11.586111 0.257732
11.588889 0.278351
11.591667 0.295533
11.594444 0.295533
11.597222 0.278351
11.600000 0.250859
11.602778 0.237113
11.605556 0.261168
11.608333 0.292096
11.611111 0.302405
11.613889 0.288660
11.616667 0.268041
11.619444 0.254296
11.622222 0.274914
11.625000 0.302405
11.627778 0.309278
11.630556 0.288660
11.633333 0.274914
11.636111 0.281787
11.638889 0.298969
11.641667 0.316151
11.644444 0.302405
11.647222 0.274914
11.650000 0.230241
11.652778 0.209622
11.655556 0.237113
11.658333 0.250859
11.661111 0.243986
11.663889 0.250859
11.666667 0.261168
11.669444 0.254296
11.672222 0.278351
11.675000 0.302405
11.677778 0.285223
11.680556 0.268041
11.683333 0.264605
11.686111 0.274914
11.688889 0.323024
11.691667 0.360825
11.694444 0.353952
11.697222 0.350515
11.700000 0.329897
11.702778 0.316151
11.705556 0.343643
11.708333 0.371134
11.711111 0.371134
11.713889 0.360825
11.716667 0.340206
11.719444 0.329897
11.722222 0.343643
11.725000 0.353952
11.727778 0.350515
11.730556 0.347079
11.733333 0.343643
11.736111 0.364261
11.738889 0.388316
11.741667 0.391753
11.744444 0.388316
11.747222 0.371134
11.750000 0.347079
11.752778 0.336770
11.755556 0.353952
11.758333 0.384880
11.761111 0.384880
11.763889 0.350515
11.766667 0.312715
11.769444 0.309278
11.772222 0.333333
11.775000 0.329897
11.777778 0.292096
11.780556 0.257732
11.783333 0.240550
11.786111 0.240550
11.788889 0.257732
11.791667 0.261168
11.794444 0.240550
11.797222 0.223368
11.800000 0.226804
11.802778 0.243986
11.805556 0.268041
11.808333 0.292096
11.811111 0.292096
11.813889 0.261168
11.816667 0.237113
11.819444 0.237113
11.822222 0.247423
11.825000 0.250859
11.827778 0.240550
11.830556 0.223368
11.833333 0.216495
11.836111 0.206186
11.838889 0.185567
11.841667 0.158076
11.844444 0.123711
11.847222 0.103093
11.850000 0.106529
11.852778 0.147766
11.855556 0.250859
11.858333 0.429553
11.861111 0.663230
11.863889 0.920962
11.866667 1.168385
11.869444 1.343643
11.872222 1.329897
11.875000 1.199313
11.877778 1.082474
11.880556 0.989691
11.883333 0.855670
11.886111 0.659794
11.888889 0.453608
11.891667 0.271478
11.894444 0.134021
11.897222 0.075601
11.900000 0.082474
11.902778 0.140893
11.905556 0.213058
11.908333 0.261168
11.911111 0.257732
11.913889 0.219931
11.916667 0.178694
11.919444 0.175258
11.922222 0.223368
11.925000 0.261168
11.927778 0.243986
11.930556 0.206186
11.933333 0.189003
11.936111 0.206186
11.938889 0.237113
11.941667 0.268041
11.944444 0.271478
11.947222 0.247423
11.950000 0.199313
11.952778 0.175258
11.955556 0.209622
11.958333 0.250859
11.961111 0.247423
11.963889 0.226804
11.966667 0.209622
11.969444 0.219931
11.972222 0.250859
11.975000 0.274914
11.977778 0.261168
11.980556 0.233677
11.983333 0.202749
11.986111 0.195876
11.988889 0.230241
11.991667 0.264605
11.994444 0.257732
11.997222 0.233677
12.000000 0.223368
12.002778 0.233677
12.005556 0.261168
12.008333 0.281787
12.011111 0.271478
12.013889 0.240550
12.016667 0.219931
12.019444 0.237113
12.022222 0.288660
12.025000 0.319588
12.027778 0.309278
12.030556 0.281787
12.033333 0.261168
12.036111 0.261168
12.038889 0.295533
12.041667 0.323024
12.044444 0.309278
12.047222 0.288660
12.050000 0.278351
12.052778 0.288660
12.055556 0.312715
12.058333 0.319588
12.061111 0.302405
12.063889 0.292096
12.066667 0.295533
12.069444 0.305842
12.072222 0.343643
12.075000 0.378007
12.077778 0.402062
12.080556 0.398625
12.083333 0.353952
12.086111 0.323024
12.088889 0.343643
12.091667 0.398625
12.094444 0.405498
12.097222 0.371134
12.100000 0.329897
12.102778 0.333333
12.105556 0.371134
12.108333 0.395189
12.111111 0.381443
12.113889 0.353952
12.116667 0.357388
12.119444 0.367698
12.122222 0.374570
12.125000 0.381443
12.127778 0.374570
12.130556 0.364261
12.133333 0.343643
12.136111 0.326460
12.138889 0.343643
12.141667 0.378007
12.144444 0.388316
12.147222 0.367698
12.150000 0.333333
12.152778 0.319588
12.155556 0.343643
12.158333 0.371134
12.161111 0.357388
12.163889 0.323024
12.166667 0.298969
12.169444 0.295533
12.172222 0.319588
12.175000 0.343643
12.177778 0.333333
12.180556 0.312715
12.183333 0.292096
12.186111 0.285223
12.188889 0.302405
12.191667 0.323024
12.194444 0.312715
12.197222 0.292096
12.200000 0.281787
12.202778 0.292096
12.205556 0.316151
12.208333 0.333333
12.211111 0.312715
12.213889 0.309278
12.216667 0.309278
12.219444 0.305842
12.222222 0.323024
12.225000 0.343643
12.227778 0.340206
12.230556 0.323024
12.233333 0.295533
12.236111 0.278351
12.238889 0.302405
12.241667 0.329897
12.244444 0.326460
12.247222 0.302405
12.250000 0.281787
12.252778 0.278351
12.255556 0.316151
12.258333 0.347079
12.261111 0.329897
12.263889 0.295533
12.266667 0.278351
12.269444 0.285223
12.272222 0.312715
12.275000 0.333333
12.277778 0.319588
12.280556 0.292096
12.283333 0.274914
12.286111 0.281787
12.288889 0.319588
12.291667 0.343643
12.294444 0.333333
12.297222 0.305842
12.300000 0.292096
12.302778 0.288660
12.305556 0.298969
12.308333 0.319588
12.311111 0.319588
12.313889 0.295533
12.316667 0.278351
12.319444 0.281787
12.322222 0.298969
12.325000 0.323024
12.327778 0.323024
12.330556 0.305842
12.333333 0.288660
12.336111 0.292096
12.338889 0.319588
12.341667 0.340206
12.344444 0.343643
12.347222 0.319588
12.350000 0.292096
12.352778 0.288660
12.355556 0.312715
12.358333 0.343643
12.361111 0.336770
12.363889 0.302405
12.366667 0.288660
12.369444 0.285223
12.372222 0.309278
12.375000 0.340206
12.377778 0.333333
12.380556 0.305842
12.383333 0.292096
12.386111 0.298969
12.388889 0.323024
12.391667 0.333333
12.394444 0.319588
12.397222 0.298969
12.400000 0.288660
12.402778 0.295533
12.405556 0.316151
12.408333 0.340206
12.411111 0.329897
12.413889 0.302405
12.416667 0.292096
12.419444 0.295533
12.422222 0.312715
12.425000 0.343643
12.427778 0.343643
12.430556 0.329897
12.433333 0.312715
12.436111 0.309278
12.438889 0.323024
12.441667 0.343643
12.444444 0.333333
12.447222 0.309278
12.450000 0.288660
12.452778 0.302405
12.455556 0.343643
12.458333 0.384880
12.461111 0.388316
12.463889 0.364261
12.466667 0.336770
12.469444 0.333333
12.472222 0.367698
12.475000 0.395189
12.477778 0.402062
12.480556 0.391753
12.483333 0.374570
12.486111 0.367698
12.488889 0.391753
12.491667 0.432990
12.494444 0.446735
12.497222 0.426117
12.500000 0.405498
12.502778 0.419244
12.505556 0.432990
12.508333 0.446735
12.511111 0.450172
12.513889 0.436426
12.516667 0.395189
12.519444 0.364261
12.522222 0.384880
12.525000 0.412371
12.527778 0.402062
12.530556 0.360825
12.533333 0.326460
12.536111 0.323024
12.538889 0.340206
12.541667 0.353952
12.544444 0.343643
12.547222 0.319588
12.550000 0.302405
12.552778 0.292096
12.555556 0.278351
12.558333 0.281787
12.561111 0.292096
12.563889 0.281787
12.566667 0.261168
12.569444 0.250859
12.572222 0.271478
12.575000 0.281787
12.577778 0.278351
12.580556 0.278351
12.583333 0.261168
12.586111 0.257732
12.588889 0.271478
12.591667 0.292096
12.594444 0.298969
12.597222 0.295533
12.600000 0.268041
12.602778 0.233677
12.605556 0.219931
12.608333 0.216495
12.611111 0.185567
12.613889 0.137457
12.616667 0.120275
12.619444 0.147766
12.622222 0.250859
12.625000 0.408935
12.627778 0.639175
12.630556 0.896907
12.633333 1.137457
12.636111 1.316151
12.638889 1.319588
12.641667 1.202749
12.644444 1.092784
12.647222 1.000000
12.650000 0.907216
12.652778 0.759450
12.655556 0.553265
12.658333 0.343643
12.661111 0.185567
12.663889 0.106529
12.666667 0.134021
12.669444 0.202749
12.672222 0.257732
12.675000 0.281787
12.677778 0.278351
12.680556 0.254296
12.683333 0.223368
12.686111 0.219931
12.688889 0.247423
12.691667 0.271478
12.694444 0.281787
12.697222 0.278351
12.700000 0.261168
12.702778 0.257732
12.705556 0.261168
12.708333 0.268041
12.711111 0.257732
12.713889 0.233677
12.716667 0.216495
12.719444 0.233677
12.722222 0.268041
12.725000 0.295533
12.727778 0.302405
12.730556 0.288660
12.733333 0.261168
12.736111 0.254296
12.738889 0.278351
12.741667 0.295533
12.744444 0.292096
12.747222 0.278351
12.750000 0.257732
12.752778 0.247423
12.755556 0.271478
12.758333 0.302405
12.761111 0.309278
12.763889 0.278351
12.766667 0.250859
12.769444 0.247423
12.772222 0.278351
12.775000 0.316151
12.777778 0.323024
12.780556 0.298969
12.783333 0.278351
12.786111 0.285223
12.788889 0.316151
12.791667 0.350515
12.794444 0.350515
12.797222 0.309278
12.800000 0.274914
12.802778 0.268041
12.805556 0.302405
12.808333 0.350515
12.811111 0.364261
12.813889 0.350515
12.816667 0.326460
12.819444 0.319588
12.822222 0.336770
12.825000 0.364261
12.827778 0.384880
12.830556 0.391753
12.833333 0.371134
12.836111 0.353952
12.838889 0.364261
12.841667 0.398625
12.844444 0.426117
12.847222 0.412371
12.850000 0.374570
12.852778 0.364261
12.855556 0.381443
12.858333 0.405498
12.861111 0.426117
12.863889 0.426117
12.866667 0.391753
12.869444 0.374570
12.872222 0.381443
12.875000 0.412371
12.877778 0.432990
12.880556 0.419244
12.883333 0.395189
12.886111 0.391753
12.888889 0.412371
12.891667 0.426117
12.894444 0.415808
12.897222 0.398625
12.900000 0.381443
12.902778 0.367698
12.905556 0.374570
12.908333 0.395189
12.911111 0.384880
12.913889 0.357388
12.916667 0.333333
12.919444 0.333333
12.922222 0.364261
12.925000 0.381443
12.927778 0.371134
12.930556 0.353952
12.933333 0.336770
12.936111 0.329897
12.938889 0.340206
12.941667 0.364261
12.944444 0.381443
12.947222 0.353952
12.950000 0.312715
12.952778 0.302405
12.955556 0.319588
12.958333 0.347079
12.961111 0.364261
12.963889 0.364261
12.966667 0.353952
12.969444 0.343643
12.972222 0.347079
12.975000 0.357388
12.977778 0.360825
12.980556 0.350515
12.983333 0.323024
12.986111 0.305842
12.988889 0.309278
12.991667 0.323024
12.994444 0.323024
12.997222 0.298969
13.000000 0.264605
13.002778 0.257732
13.005556 0.281787
13.008333 0.319588
13.011111 0.333333
13.013889 0.312715
13.016667 0.288660
13.019444 0.292096
13.022222 0.309278
13.025000 0.323024
13.027778 0.312715
13.030556 0.292096
13.033333 0.281787
13.036111 0.281787
13.038889 0.281787
13.041667 0.302405
13.044444 0.309278
13.047222 0.295533
13.050000 0.281787
13.052778 0.271478
13.055556 0.278351
13.058333 0.309278
13.061111 0.326460
13.063889 0.309278
13.066667 0.288660
13.069444 0.271478
13.072222 0.274914
13.075000 0.309278
13.077778 0.319588
13.080556 0.298969
13.083333 0.274914
13.086111 0.261168
13.088889 0.274914
13.091667 0.302405
13.094444 0.305842
13.097222 0.281787
13.100000 0.247423
13.102778 0.240550
13.105556 0.261168
13.108333 0.285223
13.111111 0.278351
13.113889 0.268041
13.116667 0.247423
13.119444 0.237113
13.122222 0.261168
13.125000 0.292096
13.127778 0.288660
13.130556 0.271478
13.133333 0.250859
13.136111 0.237113
13.138889 0.247423
13.141667 0.278351
13.144444 0.285223
13.147222 0.264605
13.150000 0.240550
13.152778 0.247423
13.155556 0.271478
13.158333 0.292096
13.161111 0.298969
13.163889 0.288660
13.166667 0.271478
13.169444 0.268041
13.172222 0.281787
13.175000 0.288660
13.177778 0.288660
13.180556 0.281787
13.183333 0.268041
13.186111 0.261168
13.188889 0.281787
13.191667 0.305842
13.194444 0.302405
13.197222 0.292096
13.200000 0.271478
13.202778 0.257732
13.205556 0.274914
13.208333 0.312715
13.211111 0.326460
13.213889 0.333333
13.216667 0.312715
13.219444 0.302405
13.222222 0.326460
13.225000 0.360825
13.227778 0.367698
13.230556 0.353952
13.233333 0.316151
13.236111 0.298969
13.238889 0.329897
13.241667 0.357388
13.244444 0.360825
13.247222 0.350515
13.250000 0.333333
13.252778 0.329897
13.255556 0.357388
13.258333 0.388316
13.261111 0.402062
13.263889 0.402062
13.266667 0.384880
13.269444 0.367698
13.272222 0.371134
13.275000 0.395189
13.277778 0.391753
13.280556 0.364261
13.283333 0.333333
13.286111 0.312715
13.288889 0.329897
13.291667 0.343643
13.294444 0.326460
13.297222 0.302405
13.300000 0.271478
13.302778 0.247423
13.305556 0.254296
13.308333 0.278351
13.311111 0.261168
13.313889 0.230241
13.316667 0.202749
13.319444 0.192440
13.322222 0.209622
13.325000 0.240550
13.327778 0.247423
13.330556 0.219931
13.333333 0.178694
13.336111 0.158076
13.338889 0.168385
13.341667 0.206186
13.344444 0.226804
13.347222 0.209622
13.350000 0.195876
13.352778 0.199313
13.355556 0.226804
13.358333 0.240550
13.361111 0.230241
13.363889 0.182131
13.366667 0.113402
13.369444 0.054983
13.372222 0.048110
13.375000 0.092784
13.377778 0.134021
13.380556 0.178694
13.383333 0.278351
13.386111 0.484536
13.388889 0.759450
13.391667 1.041237
13.394444 1.261168
13.397222 1.271478
13.400000 1.123711
13.402778 1.003436
13.405556 0.958763
13.408333 0.920962
13.411111 0.807560
13.413889 0.580756
13.416667 0.326460
13.419444 0.158076
13.422222 0.109966
13.425000 0.140893
13.427778 0.195876
13.430556 0.237113
13.433333 0.233677
13.436111 0.199313
13.438889 0.195876
13.441667 0.226804
13.444444 0.247423
13.447222 0.237113
13.450000 0.216495
13.452778 0.209622
13.455556 0.219931
13.458333 0.240550
13.461111 0.250859
13.463889 0.254296
13.466667 0.240550
13.469444 0.216495
13.472222 0.213058
13.475000 0.226804
13.477778 0.237113
13.480556 0.226804
13.483333 0.209622
13.486111 0.192440
13.488889 0.185567
13.491667 0.185567
13.494444 0.185567
13.497222 0.185567
13.500000 0.164948
13.502778 0.147766
13.505556 0.158076
13.508333 0.189003
13.511111 0.195876
13.513889 0.171821
13.516667 0.144330
13.519444 0.134021
13.522222 0.147766
13.525000 0.168385
13.527778 0.171821
13.530556 0.164948
13.533333 0.137457
13.536111 0.109966
13.538889 0.113402
13.541667 0.134021
13.544444 0.140893
13.547222 0.134021
13.550000 0.116838
13.552778 0.109966
13.555556 0.120275
13.558333 0.144330
13.561111 0.147766
13.563889 0.130584
13.566667 0.106529
13.569444 0.092784
13.572222 0.103093
13.575000 0.127148
13.577778 0.137457
13.580556 0.127148
13.583333 0.103093
13.586111 0.092784
13.588889 0.113402
13.591667 0.134021
13.594444 0.137457
13.597222 0.127148
13.600000 0.113402
13.602778 0.103093
13.605556 0.106529
13.608333 0.116838
13.611111 0.123711
13.613889 0.123711
13.616667 0.106529
13.619444 0.096220
13.622222 0.116838
13.625000 0.140893
13.627778 0.134021
13.630556 0.106529
13.633333 0.072165
13.636111 0.061856
13.638889 0.085911
13.641667 0.103093
13.644444 0.103093
13.647222 0.089347
13.650000 0.058419
13.652778 0.024055
13.655556 0.034364
13.658333 0.068729
13.661111 0.085911
13.663889 0.075601
13.666667 0.034364
13.669444 0.003436
13.672222 0.003436
13.675000 0.024055
13.677778 0.030928
13.680556 0.013746
13.683333 -0.020619
13.686111 -0.044674
13.688889 -0.030928
13.691667 -0.013746
13.694444 -0.030928
13.697222 -0.061856
13.700000 -0.085911
13.702778 -0.089347
13.705556 -0.085911
13.708333 -0.068729
13.711111 -0.054983
13.713889 -0.072165
13.716667 -0.103093
13.719444 -0.123711
13.722222 -0.113402
13.725000 -0.092784
13.727778 -0.079038
13.730556 -0.085911
13.733333 -0.113402
13.736111 -0.137457
13.738889 -0.140893
13.741667 -0.123711
13.744444 -0.120275
13.747222 -0.134021
13.750000 -0.151203
13.752778 -0.154639
13.755556 -0.147766
13.758333 -0.130584
13.761111 -0.123711
13.763889 -0.123711
13.766667 -0.130584
13.769444 -0.137457
13.772222 -0.144330
13.775000 -0.147766
13.777778 -0.151203
13.780556 -0.164948
13.783333 -0.175258
13.786111 -0.175258
13.788889 -0.171821
13.791667 -0.175258
13.794444 -0.185567
13.797222 -0.182131
13.800000 -0.175258
13.802778 -0.185567
13.805556 -0.199313
13.808333 -0.199313
13.811111 -0.185567
13.813889 -0.185567
13.816667 -0.219931
13.819444 -0.230241
13.822222 -0.216495
13.825000 -0.206186
13.827778 -0.219931
13.830556 -0.237113
13.833333 -0.243986
13.836111 -0.240550
13.838889 -0.240550
13.841667 -0.243986
13.844444 -0.237113
13.847222 -0.237113
13.850000 -0.257732
13.852778 -0.278351
13.855556 -0.288660
13.858333 -0.274914
13.861111 -0.257732
13.863889 -0.254296
13.866667 -0.288660
13.869444 -0.298969
13.872222 -0.271478
13.875000 -0.247423
13.877778 -0.268041
13.880556 -0.309278
13.883333 -0.336770
13.886111 -0.347079
13.888889 -0.329897
13.891667 -0.298969
13.894444 -0.281787
13.897222 -0.288660
13.900000 -0.319588
13.902778 -0.340206
13.905556 -0.323024
13.908333 -0.292096
13.911111 -0.292096
13.913889 -0.319588
13.916667 -0.350515
13.919444 -0.381443
13.922222 -0.384880
13.925000 -0.364261
13.927778 -0.350515
13.930556 -0.360825
13.933333 -0.381443
13.936111 -0.384880
13.938889 -0.374570
13.941667 -0.350515
13.944444 -0.333333
13.947222 -0.323024
13.950000 -0.333333
13.952778 -0.350515
13.955556 -0.347079
13.958333 -0.329897
13.961111 -0.323024
13.963889 -0.336770
13.966667 -0.336770
13.969444 -0.329897
13.972222 -0.316151
13.975000 -0.309278
13.977778 -0.340206
13.980556 -0.357388
13.983333 -0.357388
13.986111 -0.343643
13.988889 -0.333333
13.991667 -0.329897
13.994444 -0.333333
13.997222 -0.360825
14.000000 -0.388316
14.002778 -0.391753
14.005556 -0.360825
14.008333 -0.329897
14.011111 -0.350515
14.013889 -0.402062
14.016667 -0.450172
14.019444 -0.463918
14.022222 -0.463918
14.025000 -0.457045
14.027778 -0.477663
14.030556 -0.512027
14.033333 -0.539519
14.036111 -0.546392
14.038889 -0.546392
14.041667 -0.546392
14.044444 -0.549828
14.047222 -0.567010
14.050000 -0.601375
14.052778 -0.618557
14.055556 -0.611684
14.058333 -0.597938
14.061111 -0.577320
14.063889 -0.560137
14.066667 -0.577320
14.069444 -0.611684
14.072222 -0.621993
14.075000 -0.601375
14.077778 -0.597938
14.080556 -0.608247
14.083333 -0.621993
14.086111 -0.632302
14.088889 -0.642612
14.091667 -0.646048
14.094444 -0.680412
14.097222 -0.745704
14.100000 -0.793814
14.102778 -0.780069
14.105556 -0.725086
14.108333 -0.621993
14.111111 -0.463918
14.113889 -0.254296
14.116667 -0.020619
14.119444 0.219931
14.122222 0.415808
14.125000 0.402062
14.127778 0.250859
14.130556 0.137457
14.133333 0.089347
14.136111 0.024055
14.138889 -0.140893
14.141667 -0.378007
14.144444 -0.611684
14.147222 -0.773196
14.150000 -0.852234
14.152778 -0.828179
14.155556 -0.745704
14.158333 -0.676976
14.161111 -0.639175
14.163889 -0.639175
14.166667 -0.670103
14.169444 -0.670103
14.172222 -0.642612
14.175000 -0.621993
14.177778 -0.618557
14.180556 -0.649485
14.183333 -0.694158
14.186111 -0.704467
14.188889 -0.666667
14.191667 -0.621993
14.194444 -0.611684
14.197222 -0.628866
14.200000 -0.670103
14.202778 -0.690722
14.205556 -0.683849
14.208333 -0.656357
14.211111 -0.642612
14.213889 -0.649485
14.216667 -0.673540
14.219444 -0.683849
14.222222 -0.666667
14.225000 -0.646048
14.227778 -0.635739
14.230556 -0.642612
14.233333 -0.680412
14.236111 -0.701031
14.238889 -0.683849
14.241667 -0.652921
14.244444 -0.652921
14.247222 -0.666667
14.250000 -0.683849
14.252778 -0.690722
14.255556 -0.652921
14.258333 -0.625430
14.261111 -0.646048
14.263889 -0.670103
14.266667 -0.676976
14.269444 -0.680412
14.272222 -0.670103
14.275000 -0.632302
14.277778 -0.639175
14.280556 -0.676976
14.283333 -0.697595
14.286111 -0.687285
14.288889 -0.652921
14.291667 -0.615120
14.294444 -0.608247
14.297222 -0.649485
14.300000 -0.694158
14.302778 -0.690722
14.305556 -0.646048
14.308333 -0.597938
14.311111 -0.580756
14.313889 -0.601375
14.316667 -0.625430
14.319444 -0.632302
14.322222 -0.628866
14.325000 -0.615120
14.327778 -0.615120
14.330556 -0.625430
14.333333 -0.632302
14.336111 -0.618557
14.338889 -0.608247
14.341667 -0.591065
14.344444 -0.573883
14.347222 -0.580756
14.350000 -0.632302
14.352778 -0.646048
14.355556 -0.615120
14.358333 -0.580756
14.361111 -0.556701
14.363889 -0.570447
14.366667 -0.611684
14.369444 -0.628866
14.372222 -0.618557
14.375000 -0.591065
14.377778 -0.591065
14.380556 -0.611684
14.383333 -0.639175
14.386111 -0.659794
14.388889 -0.652921
14.391667 -0.628866
14.394444 -0.621993
14.397222 -0.639175
14.400000 -0.663230
14.402778 -0.666667
14.405556 -0.652921
14.408333 -0.628866
14.411111 -0.608247
14.413889 -0.639175
14.416667 -0.680412
14.419444 -0.687285
14.422222 -0.666667
14.425000 -0.642612
14.427778 -0.642612
14.430556 -0.659794
14.433333 -0.683849
14.436111 -0.680412
14.438889 -0.652921
14.441667 -0.632302
14.444444 -0.628866
14.447222 -0.646048
14.450000 -0.680412
14.452778 -0.683849
14.455556 -0.670103
14.458333 -0.649485
14.461111 -0.635739
14.463889 -0.639175
14.466667 -0.663230
14.469444 -0.676976
14.472222 -0.670103
14.475000 -0.652921
14.477778 -0.635739
14.480556 -0.646048
14.483333 -0.670103
14.486111 -0.666667
14.488889 -0.656357
14.491667 -0.649485
14.494444 -0.639175
14.497222 -0.639175
14.500000 -0.666667
14.502778 -0.687285
14.505556 -0.676976
14.508333 -0.656357
14.511111 -0.632302
14.513889 -0.639175
14.516667 -0.670103
14.519444 -0.683849
14.522222 -0.683849
14.525000 -0.666667
14.527778 -0.646048
14.530556 -0.659794
14.533333 -0.687285
14.536111 -0.690722
14.538889 -0.676976
14.541667 -0.663230
14.544444 -0.652921
14.547222 -0.652921
14.550000 -0.673540
14.552778 -0.673540
14.555556 -0.663230
14.558333 -0.642612
14.561111 -0.635739
14.563889 -0.649485
14.566667 -0.673540
14.569444 -0.680412
14.572222 -0.680412
14.575000 -0.659794
14.577778 -0.632302
14.580556 -0.639175
14.583333 -0.670103
14.586111 -0.673540
14.588889 -0.666667
14.591667 -0.656357
14.594444 -0.642612
14.597222 -0.652921
14.600000 -0.670103
14.602778 -0.666667
14.605556 -0.659794
14.608333 -0.649485
14.611111 -0.632302
14.613889 -0.628866
14.616667 -0.642612
14.619444 -0.652921
14.622222 -0.652921
14.625000 -0.639175
14.627778 -0.628866
14.630556 -0.642612
14.633333 -0.663230
14.636111 -0.673540
14.638889 -0.673540
14.641667 -0.656357
14.644444 -0.642612
14.647222 -0.649485
14.650000 -0.680412
14.652778 -0.701031
14.655556 -0.690722
14.658333 -0.649485
14.661111 -0.628866
14.663889 -0.642612
14.666667 -0.663230
14.669444 -0.663230
14.672222 -0.649485
14.675000 -0.608247
14.677778 -0.580756
14.680556 -0.591065
14.683333 -0.615120
14.686111 -0.621993
14.688889 -0.618557
14.691667 -0.601375
14.694444 -0.577320
14.697222 -0.580756
14.700000 -0.611684
14.702778 -0.621993
14.705556 -0.601375
14.708333 -0.567010
14.711111 -0.539519
14.713889 -0.539519
14.716667 -0.567010
14.719444 -0.587629
14.722222 -0.560137
14.725000 -0.512027
14.727778 -0.498282
14.730556 -0.525773
14.733333 -0.567010
14.736111 -0.597938
14.738889 -0.601375
14.741667 -0.570447
14.744444 -0.567010
14.747222 -0.597938
14.750000 -0.639175
14.752778 -0.659794
14.755556 -0.673540
14.758333 -0.683849
14.761111 -0.697595
14.763889 -0.694158
14.766667 -0.680412
14.769444 -0.673540
14.772222 -0.683849
14.775000 -0.673540
14.777778 -0.663230
14.780556 -0.676976
14.783333 -0.701031
14.786111 -0.714777
14.788889 -0.704467
14.791667 -0.680412
14.794444 -0.663230
14.797222 -0.670103
14.800000 -0.690722
14.802778 -0.701031
14.805556 -0.697595
14.808333 -0.680412
14.811111 -0.680412
14.813889 -0.701031
14.816667 -0.742268
14.819444 -0.793814
14.822222 -0.817869
14.825000 -0.828179
14.827778 -0.804124
14.830556 -0.752577
14.833333 -0.673540
14.836111 -0.542955
14.838889 -0.340206
14.841667 -0.075601
14.844444 0.195876
14.847222 0.408935
14.850000 0.381443
14.852778 0.195876
14.855556 0.061856
14.858333 0.003436
14.861111 -0.079038
14.863889 -0.243986
14.866667 -0.481100
14.869444 -0.714777
14.872222 -0.855670
14.875000 -0.876289
14.877778 -0.828179
14.880556 -0.773196
14.883333 -0.714777
14.886111 -0.690722
14.888889 -0.690722
14.891667 -0.680412
14.894444 -0.670103
14.897222 -0.666667
14.900000 -0.676976
14.902778 -0.687285
14.905556 -0.683849
14.908333 -0.649485
14.911111 -0.625430
14.913889 -0.639175
14.916667 -0.670103
14.919444 -0.680412
14.922222 -0.652921
14.925000 -0.618557
14.927778 -0.621993
14.930556 -0.652921
14.933333 -0.663230
14.936111 -0.642612
14.938889 -0.621993
14.941667 -0.601375
14.944444 -0.597938
14.947222 -0.618557
14.950000 -0.639175
14.952778 -0.639175
14.955556 -0.639175
14.958333 -0.615120
14.961111 -0.580756
14.963889 -0.584192
14.966667 -0.615120
14.969444 -0.628866
14.972222 -0.611684
14.975000 -0.591065
14.977778 -0.577320
14.980556 -0.567010
14.983333 -0.591065
14.986111 -0.608247
14.988889 -0.604811
14.991667 -0.567010
14.994444 -0.549828
14.997222 -0.549828
15.000000 -0.577320
15.002778 -0.597938
15.005556 -0.584192
15.008333 -0.542955
15.011111 -0.515464
15.013889 -0.532646
15.016667 -0.567010
15.019444 -0.567010
15.022222 -0.539519
15.025000 -0.515464
15.027778 -0.512027
15.030556 -0.508591
15.033333 -0.525773
15.036111 -0.542955
15.038889 -0.532646
15.041667 -0.487973
15.044444 -0.457045
15.047222 -0.470790
15.050000 -0.494845
15.052778 -0.494845
15.055556 -0.484536
15.058333 -0.467354
15.061111 -0.460481
15.063889 -0.463918
15.066667 -0.477663
15.069444 -0.477663
15.072222 -0.474227
15.075000 -0.457045
15.077778 -0.432990
15.080556 -0.415808
15.083333 -0.426117
15.086111 -0.457045
15.088889 -0.467354
15.091667 -0.450172
15.094444 -0.429553
15.097222 -0.439863
15.100000 -0.484536
15.102778 -0.505155
15.105556 -0.484536
15.108333 -0.450172
15.111111 -0.443299
15.113889 -0.457045
15.116667 -0.487973
15.119444 -0.508591
15.122222 -0.518900
15.125000 -0.498282
15.127778 -0.467354
15.130556 -0.453608
15.133333 -0.491409
15.136111 -0.518900
15.138889 -0.491409
15.141667 -0.443299
15.144444 -0.426117
15.147222 -0.453608
15.150000 -0.491409
15.152778 -0.505155
15.155556 -0.494845
15.158333 -0.477663
15.161111 -0.487973
15.163889 -0.481100
15.166667 -0.453608
15.169444 -0.436426
15.172222 -0.446735
15.175000 -0.457045
15.177778 -0.446735
15.180556 -0.436426
15.183333 -0.436426
15.186111 -0.446735
15.188889 -0.443299
15.191667 -0.446735
15.194444 -0.457045
15.197222 -0.453608
15.200000 -0.463918
15.202778 -0.467354
15.205556 -0.443299
15.208333 -0.405498
15.211111 -0.402062
15.213889 -0.432990
15.216667 -0.463918
15.219444 -0.467354
15.222222 -0.453608
15.225000 -0.429553
15.227778 -0.415808
15.230556 -0.412371
15.233333 -0.412371
15.236111 -0.422680
15.238889 -0.422680
15.241667 -0.402062
15.244444 -0.395189
15.247222 -0.402062
15.250000 -0.412371
15.252778 -0.419244
15.255556 -0.415808
15.258333 -0.405498
15.261111 -0.391753
15.263889 -0.388316
15.266667 -0.395189
15.269444 -0.415808
15.272222 -0.457045
15.275000 -0.494845
15.277778 -0.498282
15.280556 -0.439863
15.283333 -0.364261
15.286111 -0.340206
15.288889 -0.357388
15.291667 -0.374570
15.294444 -0.367698
15.297222 -0.353952
15.300000 -0.367698
15.302778 -0.391753
15.305556 -0.395189
15.308333 -0.374570
15.311111 -0.367698
15.313889 -0.371134
15.316667 -0.381443
15.319444 -0.395189
15.322222 -0.388316
15.325000 -0.364261
15.327778 -0.343643
15.330556 -0.343643
15.333333 -0.357388
15.336111 -0.350515
15.338889 -0.347079
15.341667 -0.333333
15.344444 -0.302405
15.347222 -0.298969
15.350000 -0.329897
15.352778 -0.347079
15.355556 -0.350515
15.358333 -0.333333
15.361111 -0.305842
15.363889 -0.298969
15.366667 -0.319588
15.369444 -0.350515
15.372222 -0.347079
15.375000 -0.298969
15.377778 -0.271478
15.380556 -0.271478
15.383333 -0.292096
15.386111 -0.323024
15.388889 -0.309278
15.391667 -0.268041
15.394444 -0.257732
15.397222 -0.278351
15.400000 -0.292096
15.402778 -0.302405
15.405556 -0.309278
15.408333 -0.292096
15.411111 -0.271478
15.413889 -0.278351
15.416667 -0.292096
15.419444 -0.271478
15.422222 -0.219931
15.425000 -0.178694
15.427778 -0.171821
15.430556 -0.182131
15.433333 -0.199313
15.436111 -0.209622
15.438889 -0.195876
15.441667 -0.175258
15.444444 -0.161512
15.447222 -0.164948
15.450000 -0.189003
15.452778 -0.202749
15.455556 -0.192440
15.458333 -0.147766
15.461111 -0.113402
15.463889 -0.116838
15.466667 -0.154639
15.469444 -0.171821
15.472222 -0.144330
15.475000 -0.103093
15.477778 -0.096220
15.480556 -0.116838
15.483333 -0.144330
15.486111 -0.151203
15.488889 -0.154639
15.491667 -0.151203
15.494444 -0.144330
15.497222 -0.151203
15.500000 -0.185567
15.502778 -0.213058
15.505556 -0.219931
15.508333 -0.209622
15.511111 -0.199313
15.513889 -0.209622
15.516667 -0.240550
15.519444 -0.261168
15.522222 -0.257732
15.525000 -0.233677
15.527778 -0.219931
15.530556 -0.226804
15.533333 -0.261168
15.536111 -0.285223
15.538889 -0.264605
15.541667 -0.240550
15.544444 -0.250859
15.547222 -0.257732
15.550000 -0.247423
15.552778 -0.250859
15.555556 -0.257732
15.558333 -0.237113
15.561111 -0.226804
15.563889 -0.261168
15.566667 -0.333333
15.569444 -0.384880
15.572222 -0.374570
15.575000 -0.312715
15.577778 -0.250859
15.580556 -0.189003
15.583333 -0.061856
15.586111 0.164948
15.588889 0.467354
15.591667 0.797251
15.594444 1.051546
15.597222 1.041237
15.600000 0.814433
15.602778 0.604811
15.605556 0.470790
15.608333 0.340206
15.611111 0.158076
15.613889 -0.044674
15.616667 -0.216495
15.619444 -0.309278
15.622222 -0.305842
15.625000 -0.247423
15.627778 -0.206186
15.630556 -0.206186
15.633333 -0.237113
15.636111 -0.261168
15.638889 -0.233677
15.641667 -0.189003
15.644444 -0.182131
15.647222 -0.233677
15.650000 -0.288660
15.652778 -0.278351
15.655556 -0.206186
15.658333 -0.140893
15.661111 -0.116838
15.663889 -0.137457
15.666667 -0.168385
15.669444 -0.199313
15.672222 -0.219931
15.675000 -0.216495
15.677778 -0.189003
15.680556 -0.158076
15.683333 -0.164948
15.686111 -0.185567
15.688889 -0.168385
15.691667 -0.134021
15.694444 -0.134021
15.697222 -0.164948
15.700000 -0.185567
15.702778 -0.185567
15.705556 -0.164948
15.708333 -0.137457
15.711111 -0.127148
15.713889 -0.144330
15.716667 -0.185567
15.719444 -0.202749
15.722222 -0.164948
15.725000 -0.113402
15.727778 -0.082474
15.730556 -0.085911
15.733333 -0.103093
15.736111 -0.116838
15.738889 -0.130584
15.741667 -0.127148
15.744444 -0.099656
15.747222 -0.082474
15.750000 -0.096220
15.752778 -0.109966
15.755556 -0.103093
15.758333 -0.096220
15.761111 -0.085911
15.763889 -0.061856
15.766667 -0.041237
15.769444 -0.044674
15.772222 -0.054983
15.775000 -0.034364
15.777778 0.000000
15.780556 0.000000
15.783333 -0.024055
15.786111 -0.051546
15.788889 -0.041237
15.791667 -0.010309
15.794444 0.030928
15.797222 0.058419
15.800000 0.030928
15.802778 0.000000
15.805556 -0.003436
15.808333 0.020619
15.811111 0.034364
15.813889 0.027491
15.816667 0.020619
15.819444 0.010309
15.822222 0.006873
15.825000 0.030928
15.827778 0.054983
15.830556 0.061856
15.833333 0.051546
15.836111 0.024055
15.838889 0.020619
15.841667 0.030928
15.844444 0.048110
15.847222 0.048110
15.850000 0.030928
15.852778 0.024055
15.855556 0.030928
15.858333 0.034364
15.861111 0.054983
15.863889 0.075601
15.866667 0.044674
15.869444 -0.003436
15.872222 -0.013746
15.875000 0.006873
15.877778 0.044674
15.880556 0.058419
15.883333 0.024055
15.886111 -0.010309
15.888889 0.000000
15.891667 0.027491
15.894444 0.054983
15.897222 0.061856
15.900000 0.034364
15.902778 0.013746
15.905556 0.017182
15.908333 0.024055
15.911111 0.034364
15.913889 0.051546
15.916667 0.048110
15.919444 0.027491
15.922222 0.020619
15.925000 0.024055
15.927778 0.024055
15.930556 0.027491
15.933333 0.030928
15.936111 0.027491
15.938889 0.034364
15.941667 0.044674
15.944444 0.044674
15.947222 0.037801
15.950000 0.027491
15.952778 0.020619
15.955556 0.037801
15.958333 0.072165
15.961111 0.092784
15.963889 0.092784
15.966667 0.065292
15.969444 0.027491
15.972222 0.013746
15.975000 0.041237
15.977778 0.072165
15.980556 0.072165
15.983333 0.072165
15.986111 0.061856
15.988889 0.048110
15.991667 0.065292
15.994444 0.116838
15.997222 0.123711
16.000000 0.085911
16.002778 0.051546
16.005556 0.044674
16.008333 0.072165
16.011111 0.096220
16.013889 0.106529
16.016667 0.116838
16.019444 0.123711
16.022222 0.116838
16.025000 0.113402
16.027778 0.123711
16.030556 0.120275
16.033333 0.085911
16.036111 0.037801
16.038889 0.030928
16.041667 0.072165
16.044444 0.127148
16.047222 0.151203
16.050000 0.144330
16.052778 0.106529
16.055556 0.072165
16.058333 0.068729
16.061111 0.113402
16.063889 0.164948
16.066667 0.154639
16.069444 0.106529
16.072222 0.089347
16.075000 0.109966
16.077778 0.137457
16.080556 0.137457
16.083333 0.113402
16.086111 0.082474
16.088889 0.096220
16.091667 0.137457
16.094444 0.154639
16.097222 0.140893
16.100000 0.106529
16.102778 0.099656
16.105556 0.116838
16.108333 0.134021
16.111111 0.127148
16.113889 0.113402
16.116667 0.109966
16.119444 0.134021
16.122222 0.154639
16.125000 0.164948
16.127778 0.164948
16.130556 0.147766
16.133333 0.127148
16.136111 0.109966
16.138889 0.106529
16.141667 0.127148
16.144444 0.154639
16.147222 0.158076
16.150000 0.144330
16.152778 0.123711
16.155556 0.127148
16.158333 0.168385
16.161111 0.216495
16.163889 0.237113
16.166667 0.216495
16.169444 0.189003
16.172222 0.195876
16.175000 0.223368
16.177778 0.250859
16.180556 0.250859
16.183333 0.226804
16.186111 0.206186
16.188889 0.226804
16.191667 0.264605
16.194444 0.288660
16.197222 0.298969
16.200000 0.302405
16.202778 0.281787
16.205556 0.268041
16.208333 0.292096
16.211111 0.326460
16.213889 0.329897
16.216667 0.298969
16.219444 0.268041
16.222222 0.250859
16.225000 0.261168
16.227778 0.278351
16.230556 0.261168
16.233333 0.223368
16.236111 0.192440
16.238889 0.175258
16.241667 0.189003
16.244444 0.209622
16.247222 0.195876
16.250000 0.147766
16.252778 0.116838
16.255556 0.134021
16.258333 0.168385
16.261111 0.175258
16.263889 0.144330
16.266667 0.116838
16.269444 0.134021
16.272222 0.175258
16.275000 0.195876
16.277778 0.178694
16.280556 0.151203
16.283333 0.123711
16.286111 0.096220
16.288889 0.123711
16.291667 0.168385
16.294444 0.178694
16.297222 0.168385
16.300000 0.144330
16.302778 0.103093
16.305556 0.061856
16.308333 0.024055
16.311111 0.003436
16.313889 0.020619
16.316667 0.058419
16.319444 0.134021
16.322222 0.261168
16.325000 0.470790
16.327778 0.752577
16.330556 1.041237
16.333333 1.292096
16.336111 1.357388
16.338889 1.206186
16.341667 1.020619
16.344444 0.886598
16.347222 0.756014
16.350000 0.549828
16.352778 0.302405
16.355556 0.127148
16.358333 0.061856
16.361111 0.075601
16.363889 0.123711
16.366667 0.158076
16.369444 0.154639
16.372222 0.127148
16.375000 0.127148
16.377778 0.147766
16.380556 0.144330
16.383333 0.127148
16.386111 0.120275
16.388889 0.134021
16.391667 0.154639
16.394444 0.154639
16.397222 0.147766
16.400000 0.137457
16.402778 0.116838
16.405556 0.109966
16.408333 0.127148
16.411111 0.151203
16.413889 0.158076
16.416667 0.154639
16.419444 0.154639
16.422222 0.161512
16.425000 0.175258
16.427778 0.185567
16.430556 0.185567
16.433333 0.161512
16.436111 0.140893
16.438889 0.140893
16.441667 0.151203
16.444444 0.175258
16.447222 0.199313
16.450000 0.199313
16.452778 0.185567
16.455556 0.182131
16.458333 0.195876
16.461111 0.209622
16.463889 0.202749
16.466667 0.175258
16.469444 0.154639
16.472222 0.164948
16.475000 0.199313
16.477778 0.237113
16.480556 0.237113
16.483333 0.199313
16.486111 0.189003
16.488889 0.206186
16.491667 0.226804
16.494444 0.240550
16.497222 0.250859
16.500000 0.237113
16.502778 0.219931
16.505556 0.223368
16.508333 0.257732
16.511111 0.285223
16.513889 0.281787
16.516667 0.261168
16.519444 0.240550
16.522222 0.254296
16.525000 0.288660
16.527778 0.309278
16.530556 0.316151
16.533333 0.309278
16.536111 0.302405
16.538889 0.316151
16.541667 0.329897
16.544444 0.340206
16.547222 0.333333
16.550000 0.312715
16.552778 0.302405
16.555556 0.309278
16.558333 0.326460
16.561111 0.360825
16.563889 0.374570
16.566667 0.360825
16.569444 0.333333
16.572222 0.316151
16.575000 0.333333
16.577778 0.357388
16.580556 0.343643
16.583333 0.319588
16.586111 0.319588
16.588889 0.333333
16.591667 0.353952
16.594444 0.357388
16.597222 0.350515
16.600000 0.333333
16.602778 0.309278
16.605556 0.298969
16.608333 0.309278
16.611111 0.333333
16.613889 0.340206
16.616667 0.323024
16.619444 0.295533
16.622222 0.288660
16.625000 0.298969
16.627778 0.305842
16.630556 0.302405
16.633333 0.285223
16.636111 0.264605
16.638889 0.268041
16.641667 0.302405
16.644444 0.326460
16.647222 0.312715
16.650000 0.298969
16.652778 0.281787
16.655556 0.281787
16.658333 0.292096
16.661111 0.298969
16.663889 0.295533
16.666667 0.281787
16.669444 0.268041
16.672222 0.268041
16.675000 0.288660
16.677778 0.309278
16.680556 0.302405
16.683333 0.292096
16.686111 0.281787
16.688889 0.281787
16.691667 0.288660
16.694444 0.302405
16.697222 0.305842
16.700000 0.292096
16.702778 0.281787
16.705556 0.292096
16.708333 0.312715
16.711111 0.323024
16.713889 0.312715
16.716667 0.274914
16.719444 0.250859
16.722222 0.271478
16.725000 0.298969
16.727778 0.316151
16.730556 0.323024
16.733333 0.302405
16.736111 0.292096
16.738889 0.302405
16.741667 0.316151
16.744444 0.329897
16.747222 0.333333
16.750000 0.319588
16.752778 0.309278
16.755556 0.305842
16.758333 0.312715
16.761111 0.329897
16.763889 0.329897
16.766667 0.309278
16.769444 0.288660
16.772222 0.281787
16.775000 0.292096
16.777778 0.312715
16.780556 0.329897
16.783333 0.312715
16.786111 0.295533
16.788889 0.295533
16.791667 0.309278
16.794444 0.326460
16.797222 0.326460
16.800000 0.309278
16.802778 0.285223
16.805556 0.292096
16.808333 0.323024
16.811111 0.343643
16.813889 0.333333
16.816667 0.302405
16.819444 0.292096
16.822222 0.302405
16.825000 0.319588
16.827778 0.329897
16.830556 0.329897
16.833333 0.312715
16.836111 0.292096
16.838889 0.295533
16.841667 0.312715
16.844444 0.343643
16.847222 0.353952
16.850000 0.323024
16.852778 0.302405
16.855556 0.298969
16.858333 0.312715
16.861111 0.340206
16.863889 0.350515
16.866667 0.329897
16.869444 0.292096
16.872222 0.292096
16.875000 0.323024
16.877778 0.343643
16.880556 0.319588
16.883333 0.298969
16.886111 0.302405
16.888889 0.319588
16.891667 0.340206
16.894444 0.360825
16.897222 0.357388
16.900000 0.360825
16.902778 0.371134
16.905556 0.384880
16.908333 0.402062
16.911111 0.408935
16.913889 0.408935
16.916667 0.395189
16.919444 0.381443
16.922222 0.391753
16.925000 0.415808
16.927778 0.429553
16.930556 0.422680
16.933333 0.405498
16.936111 0.391753
16.938889 0.405498
16.941667 0.439863
16.944444 0.467354
16.947222 0.467354
16.950000 0.436426
16.952778 0.415808
16.955556 0.429553
16.958333 0.446735
16.961111 0.457045
16.963889 0.443299
16.966667 0.415808
16.969444 0.395189
16.972222 0.384880
16.975000 0.395189
16.977778 0.402062
16.980556 0.381443
16.983333 0.350515
16.986111 0.323024
16.988889 0.319588
16.991667 0.333333
16.994444 0.336770
16.997222 0.319588
17.000000 0.288660
17.002778 0.271478
17.005556 0.288660
17.008333 0.305842
17.011111 0.323024
17.013889 0.319588
17.016667 0.292096
17.019444 0.285223
17.022222 0.298969
17.025000 0.302405
17.027778 0.298969
17.030556 0.288660
17.033333 0.278351
17.036111 0.254296
17.038889 0.250859
17.041667 0.261168
17.044444 0.247423
17.047222 0.209622
17.050000 0.151203
17.052778 0.113402
17.055556 0.137457
17.058333 0.195876
17.061111 0.278351
17.063889 0.408935
17.066667 0.618557
17.069444 0.869416
17.072222 1.144330
17.075000 1.378007
17.077778 1.381443
17.080556 1.185567
17.083333 1.006873
17.086111 0.907216
17.088889 0.807560
17.091667 0.652921
17.094444 0.429553
17.097222 0.219931
17.100000 0.092784
17.102778 0.068729
17.105556 0.134021
17.108333 0.237113
17.111111 0.298969
17.113889 0.292096
17.116667 0.257732
17.119444 0.230241
17.122222 0.230241
17.125000 0.257732
17.127778 0.288660
17.130556 0.281787
17.133333 0.257732
17.136111 0.240550
17.138889 0.243986
17.141667 0.261168
17.144444 0.278351
17.147222 0.292096
17.150000 0.278351
17.152778 0.243986
17.155556 0.230241
17.158333 0.268041
17.161111 0.302405
17.163889 0.305842
17.166667 0.288660
17.169444 0.261168
17.172222 0.261168
17.175000 0.288660
17.177778 0.305842
17.180556 0.292096
17.183333 0.271478
17.186111 0.261168
17.188889 0.268041
17.191667 0.281787
17.194444 0.295533
17.197222 0.292096
17.200000 0.292096
17.202778 0.292096
17.205556 0.298969
17.208333 0.302405
17.211111 0.319588
17.213889 0.319588
17.216667 0.312715
17.219444 0.302405
17.222222 0.298969
17.225000 0.305842
17.227778 0.329897
17.230556 0.340206
17.233333 0.340206
17.236111 0.323024
17.238889 0.319588
17.241667 0.333333
17.244444 0.357388
17.247222 0.353952
17.250000 0.329897
17.252778 0.309278
17.255556 0.316151
17.258333 0.343643
17.261111 0.367698
17.263889 0.371134
17.266667 0.357388
17.269444 0.340206
17.272222 0.353952
17.275000 0.384880
17.277778 0.402062
17.280556 0.412371
17.283333 0.395189
17.286111 0.371134
17.288889 0.367698
17.291667 0.378007
17.294444 0.395189
17.297222 0.391753
17.300000 0.364261
17.302778 0.343643
17.305556 0.367698
17.308333 0.412371
17.311111 0.436426
17.313889 0.432990
17.316667 0.419244
17.319444 0.402062
17.322222 0.395189
17.325000 0.419244
17.327778 0.457045
17.330556 0.484536
17.333333 0.474227
17.336111 0.463918
17.338889 0.453608
17.341667 0.443299
17.344444 0.415808
17.347222 0.398625
17.350000 0.412371
17.352778 0.450172
17.355556 0.467354
17.358333 0.474227
17.361111 0.494845
17.363889 0.484536
17.366667 0.429553
17.369444 0.381443
17.372222 0.364261
17.375000 0.364261
17.377778 0.364261
17.380556 0.388316
17.383333 0.457045
17.386111 0.494845
17.388889 0.484536
17.391667 0.453608
17.394444 0.395189
17.397222 0.329897
17.400000 0.274914
17.402778 0.237113
17.405556 0.240550
17.408333 0.298969
17.411111 0.374570
17.413889 0.415808
17.416667 0.388316
17.419444 0.350515
17.422222 0.336770
17.425000 0.333333
17.427778 0.374570
17.430556 0.426117
17.433333 0.436426
17.436111 0.391753
17.438889 0.329897
17.441667 0.323024
17.444444 0.353952
17.447222 0.371134
17.450000 0.343643
17.452778 0.333333
17.455556 0.381443
17.458333 0.453608
17.461111 0.518900
17.463889 0.560137
17.466667 0.570447
17.469444 0.546392
17.472222 0.457045
17.475000 0.350515
17.477778 0.278351
17.480556 0.237113
17.483333 0.216495
17.486111 0.261168
17.488889 0.371134
17.491667 0.436426
17.494444 0.436426
17.497222 0.474227
17.500000 0.539519
17.502778 0.570447
17.505556 0.577320
17.508333 0.546392
17.511111 0.457045
17.513889 0.381443
17.516667 0.302405
17.519444 0.237113
17.522222 0.271478
17.525000 0.371134
17.527778 0.422680
17.530556 0.336770
17.533333 0.189003
17.536111 0.092784
17.538889 0.092784
17.541667 0.185567
17.544444 0.288660
17.547222 0.312715
17.550000 0.281787
17.552778 0.264605
17.555556 0.298969
17.558333 0.329897
17.561111 0.353952
17.563889 0.384880
17.566667 0.443299
17.569444 0.542955
17.572222 0.618557
17.575000 0.580756
17.577778 0.474227
17.580556 0.312715
17.583333 0.257732
17.586111 0.309278
17.588889 0.384880
17.591667 0.470790
17.594444 0.460481
17.597222 0.340206
17.600000 0.240550
17.602778 0.206186
17.605556 0.226804
17.608333 0.271478
17.611111 0.309278
17.613889 0.302405
17.616667 0.292096
17.619444 0.312715
17.622222 0.374570
17.625000 0.426117
17.627778 0.443299
17.630556 0.477663
17.633333 0.460481
17.636111 0.381443
17.638889 0.298969
17.641667 0.288660
17.644444 0.319588
17.647222 0.326460
17.650000 0.412371
17.652778 0.518900
17.655556 0.512027
17.658333 0.415808
17.661111 0.319588
17.663889 0.316151
17.666667 0.364261
17.669444 0.371134
17.672222 0.371134
17.675000 0.395189
17.677778 0.432990
17.680556 0.498282
17.683333 0.522337
17.686111 0.501718
17.688889 0.470790
17.691667 0.439863
17.694444 0.436426
17.697222 0.422680
17.700000 0.494845
17.702778 0.652921
17.705556 0.749141
17.708333 0.680412
17.711111 0.525773
17.713889 0.371134
